emg0,emg1,emg2,emg3,emg4,emg5,emg6,emg7,gesture
22,56,29,100,16,1,2,5,0
11,0,100,37,16,1,0,2,0
33,38,54,100,70,28,16,7,0
3,21,41,100,51,10,0,0,0
32,100,76,46,37,72,17,4,0
33,23,73,67,21,100,20,0,0
7,60,0,100,11,34,7,0,0
0,29,55,100,12,7,5,5,0
16,43,100,1,11,25,6,1,0
64,100,27,50,90,7,8,11,0
2,100,61,1,13,24,0,1,0
84,100,74,58,20,26,26,42,0
2,100,69,39,36,32,1,4,0
63,12,53,100,23,76,38,43,0
49,88,57,100,47,75,20,30,0
10,82,100,64,84,62,2,0,0
40,100,65,61,50,51,11,40,0
18,97,89,36,32,100,16,30,0
10,46,54,30,100,42,2,16,0
24,49,41,100,97,46,6,8,0
10,89,65,100,0,43,20,7,0
14,100,46,32,26,48,0,16,0
21,100,50,2,11,30,21,21,0
0,4,38,100,8,5,1,0,0
16,74,100,69,49,10,1,0,0
87,50,12,100,84,43,3,3,0
39,82,100,92,40,18,3,7,0
34,49,32,13,100,42,13,1,0
22,57,100,45,61,31,0,5,0
64,100,46,40,28,23,9,21,0
9,100,76,57,2,14,1,4,0
43,65,100,59,36,8,9,21,0
25,1,100,10,60,1,17,17,0
17,82,100,33,16,3,4,12,0
26,100,27,2,47,31,5,14,0
13,2,28,100,26,0,3,0,0
43,100,96,42,22,6,8,10,0
22,100,34,17,81,15,11,10,0
2,23,90,100,72,0,1,2,0
36,74,100,20,33,8,5,8,0
6,5,100,91,36,19,3,2,0
0,100,63,15,22,39,0,2,0
32,67,100,18,97,18,20,20,0
40,18,100,69,23,12,7,6,0
15,56,21,100,29,64,0,0,0
49,100,69,100,6,23,16,9,0
3,18,79,100,23,15,13,9,0
Battery: 87
9,100,96,24,0,10,0,0,0
2,86,100,95,8,15,5,8,0
24,100,9,1,82,3,7,4,0
19,100,2,92,28,12,4,12,0
10,81,32,100,1,8,1,3,0
21,73,41,100,64,10,13,14,0
12,100,82,48,42,31,8,8,0
98,100,41,94,56,20,19,41,0
50,100,47,60,18,14,1,5,0
44,100,32,38,8,2,17,17,0
11,62,88,100,25,12,10,2,0
8,100,58,91,6,2,8,5,0
21,30,100,73,2,18,1,9,0
17,18,21,100,9,6,2,17,0
28,24,35,35,100,40,6,0,0
15,63,35,100,38,40,16,18,0
52,41,68,100,19,6,14,22,0
64,31,8,100,41,49,20,20,0
2,100,43,31,23,25,7,2,0
23,7,12,100,25,23,19,38,0
15,0,100,82,4,0,1,0,0
28,100,0,52,30,20,0,2,0
7,64,94,100,23,41,21,11,0
2,100,30,55,4,6,5,8,0
30,100,6,47,27,2,14,17,0
15,99,100,75,0,24,3,1,0
48,18,80,100,20,10,15,26,0
4,100,75,6,46,17,26,11,0
6,100,84,48,21,9,0,1,0
30,100,94,15,34,39,8,0,0
5,82,100,6,8,20,1,1,0
47,34,100,9,1,19,0,13,0
25,100,26,48,7,6,1,8,0
1,42,81,100,7,3,5,3,0
9,53,100,48,61,1,4,0,0
0,14,100,1,2,2,0,1,0
9,12,100,36,3,3,0,2,0
36,43,100,51,13,4,5,11,0
44,16,100,3,13,18,9,15,0
47,79,100,18,0,31,0,2,0
75,100,18,63,32,15,4,15,0
72,2,100,57,29,18,7,23,0
30,100,26,11,37,3,0,1,0
52,100,56,75,38,1,16,15,0
2,1,43,100,86,11,3,7,0
37,100,15,36,1,4,9,11,0
0,100,97,83,8,16,5,5,0
20,100,60,43,23,18,8,7,0
15,32,100,20,12,10,3,0,0
2,100,33,90,26,15,11,11,0
0,73,100,80,31,11,0,2,0
39,100,100,49,19,5,2,2,0
24,100,57,12,13,4,0,4,0
33,100,24,16,69,2,6,9,0
2,100,49,2,16,7,4,6,0
100,74,45,56,19,36,22,30,0
23,100,15,19,51,10,0,4,0
43,100,19,81,5,4,8,18,0
4,66,54,100,24,8,1,0,0
40,72,5,100,8,4,13,16,0
27,36,50,100,2,34,5,3,0
13,52,100,24,11,18,5,3,0
1,22,100,50,4,7,1,4,0
1,2,100,14,15,7,1,1,0
0,27,100,11,5,3,0,0,0
29,86,62,100,11,19,9,13,0
7,25,36,100,53,0,1,3,0
2,36,69,100,2,11,6,8,0
32,43,100,35,4,0,0,6,0
36,100,30,16,15,6,3,15,0
29,100,83,41,16,27,18,15,0
56,100,14,4,30,16,4,12,0
67,83,100,89,14,4,2,0,0
3,30,45,100,17,3,0,1,0
6,94,100,91,80,6,10,4,0
10,100,11,68,39,14,5,1,0
29,100,40,43,51,10,1,5,0
30,33,2,100,36,23,10,15,0
76,58,88,100,4,32,14,27,0
15,67,100,27,13,1,0,3,0
31,16,62,100,1,15,3,11,0
0,18,100,47,72,13,4,1,0
41,76,73,100,5,9,9,19,0
15,100,100,55,46,12,5,8,0
8,100,62,35,26,2,0,2,0
9,71,100,81,39,2,0,3,0
100,92,42,25,60,0,7,25,0
9,100,5,43,7,1,3,0,0
20,100,74,40,0,4,1,1,0
100,10,19,36,13,21,26,45,0
10,100,14,48,11,1,1,0,0
71,33,100,100,35,7,0,19,0
30,76,100,40,11,0,0,4,0
36,21,79,100,23,4,7,11,0
15,72,45,100,6,8,2,7,0
0,88,100,50,11,16,1,3,0
43,100,41,21,23,7,0,8,0
21,92,100,32,24,4,0,7,0
14,64,100,12,64,24,5,3,0
47,23,46,100,52,17,10,2,0
20,46,100,13,9,5,0,3,0
32,0,51,98,100,19,21,16,0
20,100,51,54,26,22,1,6,0
18,92,7,100,36,34,4,4,0
38,100,0,29,1,18,5,9,0
63,100,80,90,5,12,5,18,0
18,63,15,100,9,1,0,3,0
6,23,100,7,7,0,1,1,0
22,25,39,100,47,12,11,10,0
87,79,54,33,33,100,25,37,0
26,100,5,78,2,11,11,18,0
27,100,97,60,50,6,3,13,0
9,21,59,100,28,9,1,0,0
4,100,25,19,7,24,6,8,0
33,100,44,31,8,0,0,8,0
1,6,100,58,17,1,2,0,0
24,26,100,19,16,4,4,21,0
12,45,100,23,24,4,5,12,0
21,69,100,47,14,20,3,0,0
33,84,100,59,38,8,0,0,0
32,100,26,17,0,10,7,11,0
0,100,47,92,11,1,0,0,0
28,36,98,8,100,8,7,9,0
40,31,86,100,2,3,3,17,0
42,57,39,100,34,9,1,11,0
100,19,65,83,2,28,17,36,0
84,63,100,42,7,9,1,19,0
15,56,96,100,1,22,7,8,0
26,100,67,7,10,5,1,10,0
0,31,29,100,14,6,2,1,0
2,35,100,59,73,25,5,5,0
0,35,23,100,88,18,15,18,0
100,51,35,27,40,8,2,10,0
7,100,41,28,42,27,5,5,0
2,100,46,81,36,1,0,1,0
21,70,100,52,34,10,0,4,0
14,34,100,53,56,78,0,2,0
3,85,100,46,12,7,1,0,0
39,98,100,53,53,25,7,14,0
16,35,100,37,30,1,0,0,0
0,41,100,35,23,6,8,9,0
6,100,91,82,15,13,8,6,0
4,13,46,24,1,20,14,100,0
0,41,100,45,13,1,0,2,0
1,100,35,23,30,19,1,1,0
53,60,100,80,0,28,8,20,0
100,88,73,64,14,27,4,17,0
67,8,100,82,48,22,8,13,0
14,49,100,13,20,7,13,12,0
100,29,60,95,32,22,24,37,0
100,0,73,76,7,0,15,36,0
52,98,77,100,9,13,1,23,0
4,88,61,100,55,1,1,1,0
16,25,30,44,32,100,2,2,0
78,63,100,6,11,66,8,16,0
18,1,51,100,10,23,0,6,0
22,70,81,100,5,3,3,0,0
19,21,100,62,21,12,8,3,0
30,18,10,100,51,2,19,22,0
48,98,100,16,17,2,9,19,0
12,54,81,100,1,11,3,9,0
0,29,24,100,7,40,8,5,0
9,47,72,100,9,16,6,2,0
1,25,100,30,10,4,0,0,0
11,34,100,52,38,22,13,2,0
19,15,65,100,36,13,9,9,0
10,13,100,22,6,3,2,6,0
0,69,72,100,1,5,0,5,0
6,100,10,79,32,10,6,0,0
0,19,100,46,0,6,1,1,0
0,11,100,94,1,1,1,1,0
28,100,3,63,24,17,6,8,0
0,26,18,100,58,15,4,2,0
10,100,36,39,23,0,0,5,0
38,19,45,100,20,4,1,1,0
23,95,100,47,13,7,2,2,0
4,31,57,100,6,5,0,0,0
57,65,91,40,100,2,2,11,0
10,74,7,100,9,0,3,6,0
0,79,100,60,23,13,6,2,0
32,70,95,100,0,1,0,6,0
0,69,100,91,16,2,8,0,0
5,50,100,35,57,15,5,5,0
37,19,100,83,65,10,0,11,0
27,9,100,75,20,4,1,1,0
13,75,46,100,5,15,1,5,0
15,76,100,39,20,26,1,9,0
30,100,71,3,5,13,6,10,0
21,84,100,23,1,6,1,6,0
7,51,100,19,48,7,9,17,0
10,35,77,100,59,13,14,16,0
12,33,100,34,17,2,2,4,0
1,59,11,21,100,8,9,6,0
29,100,4,94,22,11,4,4,0
1,100,0,84,39,7,0,2,0
1,78,100,82,32,1,3,0,0
27,67,100,2,24,29,13,18,0
25,1,100,53,2,1,4,3,0
0,0,100,17,3,3,1,1,0
4,3,100,56,4,6,1,1,0
4,29,100,13,11,4,5,4,0
1,24,100,36,45,1,5,2,0
28,11,8,100,12,3,10,14,0
15,31,100,51,24,10,8,9,0
11,100,47,23,16,5,2,3,0
3,23,90,100,27,0,2,1,0
4,40,100,2,10,0,1,0,0
20,100,49,5,15,12,3,2,0
2,100,45,12,15,0,0,1,0
2,100,66,44,15,5,3,10,0
27,60,100,39,14,11,11,9,0
18,100,28,62,7,3,9,15,0
1,3,93,100,23,8,0,1,0
0,100,94,36,0,4,0,2,0
33,55,45,100,72,11,13,15,0
16,100,44,32,23,8,2,1,0
7,100,11,28,3,9,9,11,0
25,20,100,26,31,12,10,12,0
51,100,49,19,8,15,14,19,0
5,52,19,100,27,15,10,15,0
19,74,34,100,36,2,4,19,0
30,32,30,100,25,6,1,6,0
22,88,2,100,74,42,32,32,0
10,79,100,8,8,8,1,8,0
11,44,100,42,11,5,3,6,0
13,44,43,100,14,0,4,3,0
50,76,100,2,28,2,2,14,0
4,4,100,46,13,4,1,0,0
24,100,96,54,18,18,9,12,0
35,100,75,27,2,3,3,9,0
23,45,100,13,9,2,6,7,0
83,75,100,39,31,6,10,29,0
18,100,76,14,24,29,7,4,0
7,100,61,12,15,1,1,0,0
2,66,66,100,6,1,2,0,0
10,45,73,100,2,4,1,1,0
51,83,100,56,7,5,9,15,0
17,100,75,1,1,3,0,2,0
65,100,38,29,1,10,13,22,0
15,100,24,7,11,7,4,3,0
19,100,85,80,1,1,0,5,0
38,59,67,100,26,22,19,19,0
1,60,29,100,0,1,1,1,0
44,100,66,71,0,4,7,15,0
13,100,7,27,0,0,2,3,0
13,28,100,95,0,2,2,8,0
14,11,31,100,27,6,4,5,0
69,5,83,100,25,14,0,5,0
2,20,79,100,55,49,1,1,0
5,71,100,44,41,4,4,6,0
17,53,100,35,23,30,1,5,0
17,53,21,100,0,24,5,3,0
12,3,82,100,60,4,1,3,0
2,18,24,9,41,100,11,8,0
5,100,80,62,4,21,0,2,0
6,100,46,57,28,34,4,3,0
7,100,41,4,82,70,2,14,0
9,69,58,100,32,43,16,15,0
8,83,79,61,100,61,7,4,0
25,93,77,100,9,1,4,6,0
13,48,59,57,44,100,19,13,0
3,100,17,65,20,22,15,7,0
6,3,100,96,29,62,4,2,0
24,88,100,16,36,11,3,1,0
42,66,100,37,35,16,18,25,0
13,29,45,100,23,27,0,4,0
26,100,22,66,0,34,1,0,0
0,72,100,62,12,1,1,0,0
14,90,100,45,11,37,0,0,0
44,100,12,75,69,51,14,2,0
34,25,18,100,57,24,9,6,0
56,100,13,29,29,39,9,11,0
14,13,15,100,51,23,17,8,0
22,56,100,15,14,4,0,4,0
3,50,98,67,100,63,26,7,0
34,37,100,29,7,12,0,2,0
26,15,100,91,77,22,8,0,0
16,79,100,58,17,11,14,9,0
12,40,42,100,21,2,2,4,0
7,100,25,9,46,12,3,1,0
38,46,100,74,53,76,2,7,0
23,28,100,32,9,17,0,6,0
4,20,100,80,17,4,4,0,0
14,12,100,11,9,1,4,7,0
12,30,56,100,20,21,12,10,0
45,46,95,100,23,26,10,68,0
10,3,21,100,14,1,4,7,0
7,42,100,45,2,1,0,1,0
77,57,100,100,22,0,20,35,0
5,100,52,63,10,4,5,8,0
20,88,100,75,18,11,18,20,0
67,24,100,9,33,19,20,35,0
93,8,100,80,23,0,18,32,0
0,33,100,37,8,10,0,3,0
59,100,11,100,28,18,12,21,0
37,62,100,42,2,3,0,0,0
76,33,86,100,52,23,21,43,0
100,27,88,30,17,18,31,45,0
2,48,100,14,13,7,5,7,0
86,100,0,59,48,12,19,36,0
13,32,68,100,23,5,6,6,0
30,24,66,100,30,19,20,27,0
86,100,41,10,17,19,29,41,0
50,100,92,31,41,24,22,22,0
18,100,40,38,1,31,7,7,0
16,100,27,65,60,34,14,20,0
100,66,53,43,10,15,23,46,0
24,100,17,58,9,0,1,4,0
3,3,100,21,5,2,0,1,0
11,100,12,21,0,0,3,6,0
7,41,100,1,5,17,8,2,0
1,16,100,39,30,11,7,13,0
30,4,100,34,0,0,3,0,0
28,68,52,100,14,2,1,0,0
42,71,100,46,3,11,9,15,0
7,100,18,44,12,2,1,0,0
23,22,39,100,53,62,22,23,0
22,100,16,95,26,24,4,20,0
56,100,89,12,94,5,8,21,0
4,40,32,100,6,8,2,0,0
100,1,15,41,31,40,43,55,0
28,44,46,100,20,28,15,13,0
15,29,100,9,12,7,6,2,0
20,22,0,100,47,34,11,10,0
0,100,67,10,13,6,0,1,0
23,56,100,0,36,0,0,11,0
5,7,52,100,14,7,1,1,0
13,41,91,100,9,10,3,4,0
16,100,58,51,10,16,9,5,0
100,61,11,100,70,64,35,0,0
36,6,53,100,3,1,7,6,0
19,0,100,72,51,21,15,9,0
16,80,22,100,22,4,5,15,0
10,20,10,51,100,10,3,8,0
15,14,1,36,52,31,22,100,0
10,13,100,20,1,7,0,0,0
13,50,60,100,68,39,25,27,0
37,18,100,100,45,53,18,17,0
33,86,100,12,61,17,4,4,0
15,27,5,100,45,3,11,15,0
29,100,93,98,23,94,12,17,0
10,71,100,30,0,10,9,6,0
83,40,100,26,13,23,22,41,0
5,63,100,53,34,4,6,0,0
44,1,4,100,28,1,3,16,0
68,42,100,35,48,34,25,24,0
56,75,13,90,30,100,26,5,0
85,22,100,86,93,10,33,39,0
1,100,31,19,3,19,6,1,0
3,0,33,100,67,31,6,6,0
7,17,100,35,0,30,22,50,0
26,19,0,100,26,12,12,1,0
100,12,93,41,10,13,5,10,0
60,100,33,86,86,36,20,15,0
39,95,100,53,43,7,15,13,0
45,100,56,41,54,25,0,19,0
13,100,47,75,17,83,21,16,0
75,24,66,100,49,51,6,6,0
100,3,30,3,90,75,24,45,0
24,100,87,64,27,38,12,11,0
100,84,63,1,5,25,2,23,0
50,86,100,33,15,22,1,11,0
5,100,89,9,20,4,0,2,0
27,91,79,100,4,4,8,11,0
100,57,75,60,61,23,44,54,0
2,59,71,100,21,1,0,3,0
28,35,28,100,99,9,17,12,0
37,50,13,88,100,54,26,22,0
2,5,100,24,8,35,3,2,0
16,100,89,82,34,19,5,7,0
5,78,100,22,6,0,9,13,0
1,60,100,24,0,14,6,5,0
13,53,100,19,3,25,15,11,0
0,5,100,0,6,0,0,0,0
0,5,100,34,15,9,3,3,0
10,18,100,72,9,1,1,1,0
21,44,100,55,7,3,5,5,0
11,34,100,52,27,25,5,1,0
10,84,100,27,5,0,0,0,0
27,11,100,34,74,69,20,23,0
31,30,84,100,23,25,7,11,0
1,73,100,81,0,3,2,6,0
0,100,47,32,4,7,0,2,0
0,2,84,100,52,28,18,13,0
25,62,100,95,8,4,3,4,0
5,70,1,100,15,20,0,0,0
9,88,22,3,100,7,7,7,0
27,29,100,11,30,29,3,11,0
30,27,72,100,50,27,15,22,0
44,100,78,0,35,10,0,8,0
0,100,41,60,4,0,0,1,0
74,87,87,100,96,38,9,32,0
24,100,25,18,31,3,0,1,0
62,2,54,100,31,5,6,14,0
5,71,100,24,53,4,7,0,0
56,4,16,100,38,6,2,20,0
57,76,100,78,28,35,15,23,0
53,14,100,83,1,14,3,10,0
13,69,32,100,21,17,9,10,0
13,26,100,10,12,23,5,7,0
0,21,100,5,40,20,1,1,0
7,32,100,5,5,2,3,1,0
3,100,17,20,5,1,0,0,0
31,83,100,48,9,0,3,9,0
43,74,21,100,36,14,3,12,0
18,50,100,48,2,7,3,3,0
36,44,100,86,41,24,16,22,0
27,27,100,59,0,16,16,16,0
20,22,86,100,55,10,6,4,0
9,2,100,28,9,0,5,9,0
15,44,26,100,5,5,1,4,0
7,100,63,72,5,4,1,3,0
1,34,100,2,1,7,2,1,0
26,100,84,48,0,2,0,1,0
26,88,100,60,13,13,13,6,0
7,100,20,92,40,9,11,7,0
15,38,100,73,20,0,1,0,0
15,8,18,100,2,8,7,10,0
5,40,100,16,16,10,3,1,0
22,100,56,61,36,15,9,13,0
31,20,52,100,23,1,2,0,0
2,87,100,35,16,18,0,0,0
22,100,28,92,10,19,1,2,0
13,24,100,21,1,10,6,5,0
1,43,100,41,2,5,5,5,0
27,20,100,15,0,7,3,11,0
5,22,100,56,16,2,0,0,0
20,40,100,81,20,2,2,2,0
8,55,38,59,100,25,11,8,0
31,100,83,79,18,1,7,9,0
8,52,68,100,4,1,2,1,0
12,100,74,43,7,0,1,0,0
2,100,57,4,11,5,0,0,0
2,100,63,2,13,8,8,7,0
6,100,9,60,24,16,12,9,0
2,31,100,62,9,28,3,3,0
16,77,100,16,8,16,1,1,0
19,29,100,68,34,14,4,14,0
13,6,17,21,8,5,16,100,0
13,96,100,56,6,0,1,6,0
12,17,100,24,0,7,9,13,0
11,100,8,11,3,0,3,7,0
3,58,100,98,5,5,2,5,0
3,100,75,83,22,1,3,1,0
22,53,100,50,52,0,0,9,0
46,100,6,64,20,11,7,16,0
26,42,91,94,100,18,18,20,0
57,64,84,100,28,4,22,29,0
18,100,39,21,16,9,0,3,0
21,100,41,33,37,31,6,3,0
11,100,71,16,27,16,7,5,0
26,100,100,42,20,4,8,12,0
25,77,100,44,42,0,1,9,0
9,6,100,38,37,19,3,4,0
0,85,100,0,14,7,1,1,0
7,100,82,39,1,28,8,8,0
12,20,69,100,14,12,1,5,0
21,100,15,71,26,5,21,23,0
42,100,18,21,11,14,11,17,0
5,100,52,67,15,1,2,1,0
1,100,41,29,13,18,3,6,0
26,100,4,0,0,2,1,4,0
9,7,100,63,19,42,9,11,0
7,100,32,12,38,21,7,2,0
15,100,37,69,1,30,3,1,0
8,95,100,61,2,29,2,2,0
37,100,50,1,5,5,9,9,0
7,100,48,57,11,1,2,2,0
26,34,70,100,18,8,14,18,0
15,35,100,3,28,6,15,5,0
34,48,100,0,7,13,6,12,0
0,100,77,50,6,17,6,13,0
16,100,52,62,34,9,3,1,0
35,57,57,100,84,31,24,17,0
26,58,100,77,3,0,12,16,0
17,100,90,46,13,0,0,2,0
23,100,72,34,8,7,1,4,0
16,3,16,100,44,5,6,1,0
10,100,85,26,5,7,9,6,0
18,100,58,40,1,1,1,3,0
23,100,84,100,3,0,1,10,0
19,100,72,68,40,14,19,10,0
25,14,2,100,17,9,5,7,0
19,5,100,12,5,0,17,23,0
35,39,100,0,1,16,10,16,0
1,86,100,100,0,30,13,15,0
79,29,4,100,81,15,0,22,0
8,25,100,30,8,0,2,2,0
2,35,50,100,52,45,10,8,0
25,44,100,8,14,2,3,6,0
7,40,36,100,1,3,5,6,0
37,68,100,69,55,21,18,18,0
82,32,100,22,2,7,14,35,0
7,76,100,66,6,8,2,1,0
25,100,51,80,48,66,3,12,0
32,100,30,24,26,8,6,12,0
19,100,9,11,33,59,30,21,0
47,90,100,51,28,5,14,20,0
63,12,100,42,8,4,21,29,0
45,100,20,9,2,27,11,18,0
26,100,75,62,2,11,11,20,0
20,4,25,100,5,8,5,7,0
100,0,31,97,4,24,24,34,0
9,100,6,13,4,8,3,2,0
18,94,100,81,22,24,14,18,0
15,66,100,84,7,6,3,9,0
7,50,100,20,19,1,0,1,0
8,6,100,16,23,0,5,0,0
10,100,2,60,21,8,2,2,0
25,38,100,59,10,17,0,3,0
56,86,96,100,33,0,4,11,0
23,100,93,5,8,3,4,8,0
35,54,100,100,25,3,0,6,0
5,100,69,43,7,1,1,5,0
30,30,100,66,13,12,8,15,0
10,59,100,13,26,1,2,4,0
6,94,100,72,28,12,6,2,0
18,100,75,30,1,2,4,1,0
0,33,100,11,11,3,0,0,0
16,100,80,36,3,11,1,3,0
9,100,75,42,7,0,1,0,0
12,50,100,69,22,9,4,3,0
23,100,0,44,26,0,1,4,0
47,94,100,13,41,27,8,11,0
10,61,100,0,68,10,11,7,0
22,100,25,42,24,2,4,12,0
52,100,8,30,26,15,16,23,0
38,70,100,8,53,26,3,8,0
10,39,100,36,47,6,15,15,0
1,100,27,12,26,4,2,1,0
48,55,71,100,30,15,13,17,0
28,100,73,50,40,61,0,11,0
0,47,47,100,0,2,11,10,0
1,6,100,64,27,1,7,15,0
11,47,100,41,14,4,6,5,0
27,6,100,90,13,18,8,10,0
4,97,100,3,10,3,9,10,0
16,62,14,100,12,1,0,3,0
1,100,33,35,25,5,0,9,0
15,54,35,100,15,5,3,1,0
6,100,62,44,6,39,3,5,0
30,95,43,100,34,8,12,15,0
4,56,100,20,4,8,0,4,0
2,100,8,12,20,2,1,7,0
3,7,88,100,21,1,4,3,0
3,21,7,100,1,16,2,1,0
65,39,100,19,45,28,23,23,0
25,100,18,13,18,16,2,8,0
32,50,100,19,3,15,13,15,0
7,72,60,100,20,10,1,0,0
22,100,33,42,13,4,5,11,0
51,44,77,100,3,11,11,25,0
32,29,100,22,42,7,1,13,0
1,100,43,67,1,14,1,0,0
8,100,35,16,8,0,1,3,0
14,100,59,5,0,3,5,10,0
2,77,100,68,22,6,2,2,0
9,84,100,50,19,5,1,0,0
16,100,8,44,8,17,2,6,0
30,100,23,24,6,30,4,10,0
14,0,100,98,13,11,4,7,0
4,100,86,3,5,6,2,4,0
7,92,46,100,17,5,0,0,0
12,27,100,11,1,5,2,2,0
6,100,23,17,4,2,0,0,0
1,100,28,1,8,16,0,0,0
0,28,100,22,5,1,1,1,0
5,77,100,30,2,27,0,1,0
20,92,0,100,8,0,12,14,0
12,25,53,100,1,3,3,1,0
26,100,27,30,7,3,0,1,0
13,73,13,100,1,5,1,7,0
9,100,84,42,38,1,0,1,0
5,81,100,53,4,4,2,1,0
43,100,31,20,6,1,4,4,0
10,100,37,37,0,10,0,1,0
9,77,100,94,14,16,1,4,0
13,100,4,84,52,13,4,9,0
21,13,65,100,19,0,11,11,0
15,100,37,6,13,10,0,4,0
7,61,100,24,11,20,14,10,0
23,100,60,57,16,3,5,14,0
7,100,33,55,14,6,1,4,0
1,25,100,24,37,11,9,3,0
4,90,88,100,20,11,2,2,0
9,14,100,26,18,11,3,0,0
19,100,69,25,15,15,4,6,0
18,100,77,7,2,1,1,1,0
0,95,100,75,8,6,2,0,0
8,24,100,20,6,7,4,4,0
0,40,100,0,3,0,0,0,0
2,54,100,8,4,0,0,0,0
11,100,33,15,15,9,3,3,0
12,20,93,100,18,1,3,3,0
9,100,57,16,4,6,0,0,0
9,30,100,45,2,2,2,1,0
2,51,100,100,2,17,4,4,0
17,1,14,100,29,1,3,8,0
4,57,100,26,16,1,1,4,0
15,100,81,63,2,5,2,5,0
28,88,100,60,2,16,4,12,0
13,40,100,54,10,1,4,7,0
6,42,34,100,14,8,2,4,0
7,58,92,100,10,2,5,2,0
45,34,100,2,37,18,2,8,0
3,64,100,4,18,23,4,7,0
14,52,100,23,7,0,4,2,0
7,100,72,100,27,9,5,10,0
16,63,88,100,8,2,2,0,0
28,100,90,2,8,0,6,6,0
5,66,100,8,6,2,4,4,0
0,45,24,100,13,8,0,5,0
1,100,87,32,3,1,7,4,0
4,90,100,36,3,15,0,3,0
27,100,20,52,13,1,0,4,0
20,96,42,100,27,12,9,9,0
16,35,100,28,2,1,1,7,0
32,100,45,24,18,8,8,11,0
5,100,85,44,5,1,0,0,0
40,44,40,100,27,18,9,18,0
38,58,100,41,38,8,2,19,0
12,43,100,19,0,3,1,3,0
19,66,71,100,9,12,6,7,0
5,69,100,46,10,18,1,0,0
8,100,11,45,14,2,0,1,0
30,86,8,100,52,25,11,16,0
22,15,100,20,0,3,1,5,0
19,19,38,100,30,19,6,10,0
47,86,100,27,19,5,15,25,0
33,10,100,66,26,10,5,0,0
25,100,5,86,17,7,2,10,0
4,100,12,8,3,2,1,4,0
100,84,57,78,89,36,36,63,0
1,11,100,51,14,7,2,1,0
2,17,100,19,2,0,3,0,0
19,100,56,21,58,21,19,10,0
0,100,19,17,28,0,3,0,0
14,75,100,34,11,4,1,8,0
31,100,2,31,68,8,12,11,0
4,24,18,100,19,10,7,3,0
33,100,40,62,46,2,0,2,0
45,100,52,27,85,9,1,5,0
15,100,25,42,34,18,10,14,0
26,12,100,89,1,1,2,5,0
34,100,9,71,3,6,6,15,0
7,8,37,100,16,6,3,4,0
30,100,67,9,0,11,0,11,0
0,100,11,77,5,5,2,2,0
10,100,15,11,10,7,3,3,0
7,100,73,12,22,0,1,5,0
34,100,100,17,76,13,0,6,0
22,19,100,72,15,5,2,1,0
13,41,18,100,20,1,1,10,0
12,26,83,100,36,5,0,0,0
17,86,28,100,52,6,2,15,0
37,83,33,26,100,9,4,22,0
30,61,100,81,6,17,3,3,0
45,100,57,32,9,20,11,18,0
31,45,100,73,32,1,13,15,0
17,100,15,6,5,5,4,5,0
17,2,47,100,33,12,6,7,0
5,100,74,15,21,10,2,0,0
1,50,66,100,31,10,14,8,0
15,100,6,21,16,4,5,8,0
14,79,28,100,1,13,8,8,0
1,100,37,53,0,5,0,0,0
17,17,100,37,10,1,1,1,0
16,38,100,7,4,3,1,1,0
0,8,44,100,11,10,2,1,0
37,23,100,34,1,0,6,13,0
4,13,68,100,24,16,0,2,0
7,50,100,6,59,1,8,11,0
19,100,48,0,19,11,3,0,0
24,100,75,8,26,4,0,1,0
3,100,40,30,30,4,0,1,0
40,3,11,100,19,14,1,11,0
40,81,100,29,32,8,5,10,0
6,100,81,55,22,6,4,2,0
2,100,36,46,3,0,1,1,0
11,9,100,43,1,10,3,6,0
6,93,30,100,23,4,3,0,0
9,52,100,23,11,7,1,7,0
0,9,100,57,32,3,0,0,0
6,73,12,100,4,6,2,1,0
50,19,34,100,15,1,22,25,0
30,93,100,28,0,41,16,8,0
18,61,100,94,2,7,3,8,0
0,43,100,74,69,27,20,22,0
30,85,100,15,78,6,18,18,0
0,59,26,100,8,7,0,6,0
14,79,10,100,22,7,0,5,0
14,60,100,36,0,2,4,0,0
27,45,100,5,0,6,1,5,0
17,20,1,8,1,35,2,100,1
3,40,10,10,0,0,33,100,1
4,72,6,6,1,42,100,54,1
100,97,8,5,3,52,24,95,1
48,85,4,5,0,85,100,25,1
2,32,100,9,6,45,7,26,1
72,55,11,20,16,100,26,5,1
54,100,92,21,16,12,23,80,1
8,90,1,17,14,100,30,38,1
59,0,70,51,23,61,25,100,1
4,98,36,3,3,100,7,10,1
12,11,26,0,0,17,29,100,1
100,33,40,15,12,96,70,52,1
26,100,45,21,12,61,12,35,1
26,74,14,1,7,62,13,100,1
46,100,2,4,1,44,58,100,1
9,10,3,0,3,100,43,17,1
9,44,12,0,0,100,75,73,1
17,79,34,3,3,100,62,51,1
69,39,37,9,5,30,37,100,1
52,100,22,2,6,18,85,37,1
21,7,24,0,2,100,85,24,1
3,18,25,11,0,85,68,100,1
4,1,1,1,0,18,32,100,1
7,9,3,1,1,20,0,100,1
2,86,32,2,10,41,100,73,1
29,38,2,1,3,61,81,100,1
12,26,1,0,7,100,73,42,1
64,27,12,6,3,100,65,53,1
7,44,10,3,2,68,60,100,1
17,30,10,10,0,100,81,18,1
37,1,30,8,5,100,83,82,1
18,54,18,10,15,100,39,56,1
1,22,3,10,3,100,35,38,1
3,0,0,7,3,100,46,17,1
11,51,3,3,1,53,100,66,1
2,61,8,5,11,80,100,47,1
29,50,4,11,13,100,14,22,1
27,3,24,13,8,10,42,100,1
24,13,0,3,4,24,20,100,1
4,16,7,1,0,100,48,89,1
0,77,28,10,0,67,100,86,1
80,16,8,1,0,100,28,85,1
44,8,4,0,1,56,16,100,1
4,42,1,1,2,24,13,100,1
47,52,26,8,0,97,100,94,1
0,2,100,41,0,1,0,1,1
17,62,7,1,13,50,100,1,1
4,3,3,4,7,83,12,100,1
42,55,3,5,0,100,16,97,1
2,1,16,8,5,29,56,100,1
14,33,10,0,11,20,6,100,1
15,48,1,0,0,16,45,100,1
20,22,4,4,8,46,55,100,1
0,29,11,6,6,100,91,49,1
25,26,3,0,1,3,3,100,1
11,13,6,0,8,18,59,100,1
16,9,6,2,4,88,11,100,1
22,23,13,15,1,35,100,30,1
61,7,17,7,14,15,61,100,1
6,17,7,4,6,60,81,100,1
23,75,16,10,0,100,25,51,1
26,19,19,0,7,100,12,21,1
10,17,15,4,1,17,2,100,1
27,83,29,9,11,46,100,11,1
23,37,0,0,6,67,30,100,1
7,16,3,2,1,100,59,38,1
7,14,7,3,1,100,28,2,1
3,58,20,7,1,100,0,5,1
81,100,33,30,0,81,3,57,1
5,3,0,1,5,37,17,100,1
12,37,4,1,9,100,8,40,1
46,100,14,3,7,42,57,89,1
6,47,0,5,3,22,100,57,1
54,18,15,9,25,22,100,40,1
47,44,5,5,11,24,100,79,1
5,29,5,1,2,19,18,100,1
53,13,13,9,0,32,100,44,1
29,25,8,0,1,54,74,100,1
52,18,0,2,4,6,86,100,1
30,46,0,2,6,34,60,100,1
9,2,5,1,0,52,100,51,1
15,5,1,0,10,33,72,100,1
17,100,7,0,8,5,19,56,1
22,4,5,0,0,14,18,100,1
39,100,18,0,0,60,32,1,1
44,8,2,0,1,100,49,71,1
5,53,13,1,17,76,48,100,1
18,42,3,1,4,47,100,52,1
8,17,10,1,4,100,41,24,1
31,2,9,2,6,100,56,70,1
33,14,11,17,19,33,67,100,1
37,100,10,4,1,44,35,87,1
1,23,18,11,5,18,29,100,1
12,4,2,2,3,62,100,26,1
17,100,17,2,4,61,19,27,1
6,1,9,3,7,69,100,69,1
1,35,1,5,5,11,100,80,1
53,56,20,6,0,50,100,68,1
34,24,0,0,7,59,50,100,1
1,0,10,6,10,63,100,92,1
4,57,26,7,7,100,59,40,1
20,64,16,8,0,100,100,100,1
2,19,9,3,1,52,2,100,1
17,4,9,3,1,2,16,100,1
1,100,15,4,3,64,32,84,1
11,48,11,1,2,75,100,42,1
28,100,15,9,5,28,15,71,1
2,13,0,0,1,15,8,100,1
14,17,1,1,1,0,5,100,1
42,1,0,0,1,7,100,100,1
30,25,3,11,13,66,40,100,1
13,11,5,0,0,27,21,100,1
5,93,23,13,8,0,37,100,1
13,28,3,1,0,18,13,100,1
34,56,2,6,13,70,75,100,1
0,6,0,1,0,3,100,70,1
25,55,11,9,5,26,1,100,1
45,9,15,3,7,37,3,100,1
20,44,18,7,0,11,81,100,1
18,43,14,4,0,42,34,100,1
15,80,2,12,12,17,25,100,1
14,38,14,2,7,19,64,100,1
30,53,5,4,1,20,100,27,1
11,27,53,29,18,17,37,100,1
8,4,10,8,1,6,43,100,1
13,100,13,2,6,1,23,2,1
47,100,41,47,41,26,61,44,1
2,0,11,8,12,22,100,22,1
1,10,2,2,1,16,30,100,1
5,43,2,2,2,3,6,100,1
1,28,4,1,7,17,100,75,1
29,25,2,0,0,100,75,34,1
7,1,0,1,0,36,12,100,1
6,16,16,2,6,50,91,100,1
26,1,1,1,4,62,100,22,1
28,57,6,4,0,100,0,52,1
9,19,11,3,1,32,15,100,1
14,94,1,8,1,100,63,22,1
0,23,15,2,3,100,29,38,1
70,44,16,14,12,30,100,70,1
4,32,45,28,26,58,4,100,1
40,100,9,3,1,75,19,18,1
33,21,21,13,5,55,68,100,1
72,20,15,6,11,13,52,100,1
6,78,47,4,1,17,16,100,1
1,7,1,1,1,53,9,100,1
0,6,3,1,7,76,46,100,1
7,1,39,8,3,73,95,100,1
7,70,46,16,11,46,46,100,1
100,27,2,2,2,94,36,36,1
63,29,0,0,20,100,6,100,1
23,26,29,0,6,100,34,21,1
20,39,5,11,13,100,43,58,1
13,37,13,6,3,100,56,45,1
11,7,10,7,7,8,100,13,1
2,6,3,5,1,100,34,25,1
0,10,0,5,4,45,100,82,1
49,51,24,9,28,100,28,90,1
15,18,5,3,9,53,66,100,1
23,23,14,0,1,19,100,15,1
28,3,16,2,10,23,100,22,1
40,36,6,0,23,63,34,100,1
11,30,6,0,13,79,69,100,1
70,36,4,4,11,59,57,100,1
45,8,4,5,8,72,8,100,1
34,11,0,0,8,30,100,65,1
1,1,10,4,14,100,86,20,1
4,18,1,0,1,100,65,71,1
38,44,5,3,33,55,100,90,1
7,0,2,0,0,3,24,100,1
5,31,12,1,22,75,100,55,1
37,3,3,5,0,16,67,100,1
13,15,0,0,2,70,4,100,1
24,33,24,7,20,57,31,100,1
17,10,3,1,13,52,9,100,1
6,36,6,6,4,100,25,91,1
80,100,45,3,3,74,32,83,1
30,13,0,4,1,100,11,53,1
19,25,1,6,3,19,35,100,1
12,18,4,0,8,16,51,100,1
2,8,4,2,1,42,20,100,1
4,10,0,1,0,23,27,100,1
35,23,19,14,14,69,100,95,1
31,13,4,0,8,100,36,32,1
46,31,24,2,8,2,48,100,1
4,2,0,0,0,100,96,33,1
14,4,0,7,14,100,0,40,1
0,3,1,3,13,53,73,100,1
12,27,18,7,9,9,10,100,1
15,1,1,6,10,0,100,48,1
29,41,4,0,5,27,22,100,1
24,3,72,6,20,100,89,79,1
7,7,1,1,1,96,100,26,1
7,2,2,0,7,21,48,100,1
8,20,13,1,2,12,83,100,1
58,56,1,3,7,100,3,55,1
4,0,4,2,11,20,100,95,1
11,2,27,11,13,28,100,66,1
35,52,29,3,1,3,31,100,1
17,23,17,2,0,8,6,100,1
16,2,8,1,4,4,31,100,1
12,1,3,2,1,22,38,100,1
15,1,5,0,1,37,53,100,1
13,15,3,1,5,100,18,79,1
1,18,8,7,0,30,58,100,1
22,2,0,8,20,100,12,87,1
40,27,3,1,2,48,68,100,1
29,2,4,0,0,100,1,2,1
5,1,0,1,5,67,78,100,1
47,15,2,2,7,100,71,71,1
22,20,8,0,0,100,91,68,1
7,1,5,3,7,8,100,11,1
3,8,2,2,2,7,53,100,1
17,11,17,13,21,100,46,61,1
6,3,4,1,1,7,40,100,1
21,6,0,0,0,5,31,100,1
9,5,3,1,1,16,16,100,1
12,7,6,3,0,12,6,100,1
26,10,2,2,7,50,94,100,1
43,7,0,0,0,100,28,76,1
18,3,1,2,2,25,65,100,1
35,37,17,4,0,100,56,70,1
21,19,27,9,4,18,52,100,1
16,18,5,7,2,5,58,100,1
18,20,11,3,3,10,11,100,1
28,6,8,0,12,36,100,44,1
13,60,10,0,3,71,26,100,1
15,5,0,1,7,27,52,100,1
15,15,2,2,17,100,97,7,1
39,66,9,3,9,100,81,54,1
34,48,42,17,34,28,88,100,1
3,22,6,1,3,62,18,100,1
12,5,0,0,3,50,37,100,1
15,7,5,1,11,70,84,100,1
25,19,4,1,3,100,56,82,1
73,13,11,6,8,6,24,100,1
8,36,20,8,2,18,100,100,1
13,43,18,11,2,100,45,6,1
2,21,5,4,0,5,29,100,1
11,11,0,4,3,4,5,100,1
0,9,3,4,6,25,59,100,1
22,17,9,3,1,17,60,100,1
2,18,8,3,5,23,38,100,1
10,14,2,4,22,24,61,100,1
5,0,0,0,0,11,46,100,1
25,16,13,11,8,33,70,100,1
16,1,1,0,1,44,10,100,1
1,1,4,0,7,38,46,100,1
4,4,13,0,13,0,100,97,1
5,5,1,2,4,36,100,36,1
29,1,1,2,2,28,25,100,1
5,13,3,2,8,33,11,100,1
7,0,2,1,6,23,4,100,1
16,15,7,3,0,26,100,1,1
20,20,34,25,22,48,100,42,1
6,0,5,5,5,1,100,14,1
27,16,3,1,3,100,50,94,1
38,4,0,4,2,47,100,89,1
10,2,3,3,8,56,37,100,1
8,14,16,6,3,9,100,31,1
32,35,16,5,9,17,100,31,1
6,9,1,3,5,40,54,100,1
38,13,1,1,0,9,100,44,1
0,8,3,1,3,64,100,16,1
2,5,0,0,1,42,20,100,1
11,12,0,1,14,100,38,57,1
0,4,2,4,0,100,20,36,1
10,5,2,0,2,15,20,100,1
8,0,3,2,9,100,57,47,1
1,9,5,1,5,5,96,100,1
11,6,1,0,11,52,69,100,1
14,4,16,1,3,100,6,61,1
1,12,28,4,9,9,100,59,1
34,40,22,8,4,69,95,100,1
14,37,22,9,1,48,100,40,1
1,1,12,3,12,38,61,100,1
1,11,0,1,2,100,23,47,1
13,24,1,3,5,20,100,75,1
15,0,1,0,0,100,1,90,1
2,5,7,3,0,58,54,100,1
27,1,1,0,3,13,62,100,1
12,10,2,5,0,90,60,100,1
17,1,5,0,0,10,100,55,1
25,23,3,1,1,45,45,100,1
10,13,6,0,0,100,44,37,1
19,17,86,78,1,67,94,100,1
2,8,2,2,2,100,34,95,1
20,35,2,0,2,53,69,100,1
0,8,1,1,0,100,19,69,1
17,1,1,0,4,36,22,100,1
12,1,1,1,1,2,45,100,1
0,8,0,2,8,100,11,77,1
14,5,0,0,7,4,18,100,1
13,0,0,0,1,0,3,100,1
73,53,20,13,20,16,76,100,1
5,3,1,2,1,100,19,98,1
7,4,1,3,11,7,100,89,1
22,14,13,9,11,100,9,13,1
81,77,26,14,8,16,10,100,1
4,8,4,2,4,10,12,100,1
1,11,0,0,3,13,29,100,1
2,19,10,7,0,8,10,100,1
51,0,2,2,14,40,97,100,1
48,8,5,3,0,41,13,100,1
23,4,2,0,0,21,26,100,1
3,7,1,1,1,27,100,86,1
2,1,0,5,1,12,40,100,1
15,19,5,5,12,100,7,64,1
16,0,4,4,4,1,67,100,1
7,3,3,0,2,51,11,100,1
7,14,11,7,5,12,100,61,1
43,17,5,1,1,15,28,100,1
12,0,12,14,16,10,100,25,1
23,63,33,13,20,100,20,93,1
2,17,0,2,0,26,84,100,1
0,17,1,11,3,3,40,100,1
18,13,8,5,3,8,7,100,1
24,72,34,22,18,14,36,100,1
3,15,7,9,19,100,54,13,1
18,1,3,0,10,86,100,1,1
15,25,10,3,15,0,100,3,1
1,4,9,5,0,8,88,100,1
55,26,2,2,2,100,80,88,1
100,68,20,27,18,54,65,34,1
19,8,1,2,7,4,7,100,1
100,87,15,6,25,59,62,100,1
17,2,6,1,1,10,10,100,1
26,3,9,1,11,34,3,100,1
20,9,0,1,10,58,7,100,1
11,11,0,1,10,43,50,100,1
2,10,0,6,10,100,58,41,1
8,2,1,1,3,7,10,100,1
8,0,1,0,1,1,72,100,1
14,2,9,3,2,1,64,100,1
10,0,1,1,1,25,100,92,1
8,26,12,8,8,1,100,33,1
15,1,2,3,7,7,100,99,1
7,7,7,6,5,8,82,100,1
43,6,2,1,5,18,100,60,1
12,1,0,1,6,54,1,100,1
39,26,13,10,7,34,100,78,1
30,5,8,1,8,30,51,100,1
11,0,0,3,2,8,59,100,1
20,8,0,0,2,16,68,100,1
17,12,6,6,3,24,3,100,1
28,1,1,3,5,34,40,100,1
5,7,0,0,0,12,13,100,1
17,21,9,6,4,6,44,100,1
15,24,6,1,5,15,39,100,1
15,5,5,6,2,2,17,100,1
5,8,7,1,0,0,34,100,1
4,18,26,12,1,55,9,100,1
41,6,0,0,1,43,0,100,1
4,1,19,4,0,50,100,27,1
8,0,3,0,1,13,100,60,1
13,1,15,10,8,1,28,100,1
25,27,5,0,7,25,100,74,1
60,43,14,19,12,36,100,92,1
15,30,1,0,8,34,32,100,1
2,10,4,1,4,69,55,100,1
11,11,22,11,17,65,54,100,1
40,18,1,3,16,64,85,100,1
4,13,2,4,0,15,100,80,1
30,44,12,10,24,93,49,100,1
0,14,5,1,0,51,44,100,1
12,6,2,6,2,100,72,2,1
2,35,9,2,11,73,47,100,1
0,20,2,1,0,31,49,100,1
31,5,3,5,14,24,50,100,1
17,8,3,0,1,19,77,100,1
22,18,31,15,13,100,59,6,1
14,14,9,3,5,38,35,100,1
14,30,12,6,6,100,75,48,1
12,11,1,2,0,4,22,100,1
23,1,0,2,2,57,73,100,1
4,1,1,3,5,100,75,0,1
36,7,2,7,11,32,90,100,1
73,38,14,5,11,100,73,32,1
19,28,4,4,4,100,37,62,1
19,30,15,1,1,26,28,100,1
23,0,2,0,0,39,16,100,1
0,0,2,3,3,65,58,100,1
17,8,0,2,13,91,100,40,1
44,2,13,0,7,94,2,100,1
3,9,1,3,1,23,48,100,1
15,0,2,6,24,100,91,42,1
27,16,1,1,16,49,67,100,1
47,1,0,1,1,69,22,100,1
0,15,1,3,0,1,75,100,1
16,13,3,0,5,39,49,100,1
1,25,4,4,1,59,87,100,1
6,13,9,4,4,21,100,53,1
4,13,11,6,11,29,54,100,1
7,13,3,4,3,14,100,59,1
4,6,2,1,1,30,3,100,1
9,4,9,2,39,100,37,90,1
12,10,6,6,16,31,100,56,1
15,3,0,3,7,31,53,100,1
0,69,23,2,0,44,88,100,1
20,14,8,2,5,14,100,79,1
19,3,0,0,2,34,100,85,1
24,8,6,4,22,92,82,100,1
7,5,4,1,0,100,97,64,1
3,22,1,0,4,0,88,100,1
6,7,0,0,0,38,65,100,1
6,2,1,2,6,28,100,92,1
1,27,3,5,9,100,56,76,1
32,30,12,5,5,25,19,100,1
20,2,3,4,2,32,45,100,1
0,4,1,2,0,100,2,97,1
21,53,3,0,7,19,40,100,1
37,18,5,3,0,32,88,100,1
25,11,7,2,0,29,55,100,1
0,7,5,0,2,31,64,100,1
8,11,4,0,3,100,10,72,1
100,30,4,2,23,37,23,76,1
36,10,0,3,12,64,100,30,1
75,100,43,15,3,87,46,56,1
13,11,6,3,6,39,82,100,1
6,2,0,4,20,60,20,100,1
1,7,0,0,1,26,76,100,1
38,12,12,4,5,27,30,100,1
14,4,5,2,4,37,100,50,1
10,6,2,4,8,32,100,76,1
18,15,13,7,6,36,100,81,1
15,4,1,1,1,23,100,64,1
10,4,0,0,0,6,54,100,1
9,13,6,2,10,23,47,100,1
12,3,1,0,1,22,92,100,1
32,8,5,1,1,9,57,100,1
16,1,0,2,0,29,28,100,1
5,1,1,0,5,5,100,30,1
28,19,0,1,1,13,100,94,1
31,12,0,1,0,62,100,3,1
29,2,2,0,1,5,100,81,1
100,23,0,3,6,93,100,86,1
16,2,0,1,5,0,7,100,1
16,10,6,0,1,28,74,100,1
2,2,0,0,1,11,15,100,1
10,1,0,1,3,1,61,100,1
0,1,3,1,3,1,53,100,1
7,2,5,1,5,0,25,100,1
31,14,4,4,4,4,100,58,1
12,6,2,0,3,4,2,100,1
27,23,5,2,1,34,100,56,1
12,5,9,4,9,1,28,100,1
22,1,0,1,1,20,70,100,1
3,8,1,1,0,33,60,100,1
0,14,5,4,22,17,100,5,1
26,48,26,2,10,32,67,100,1
16,7,9,3,0,37,15,100,1
1,3,8,6,6,100,52,11,1
22,6,2,1,1,19,100,29,1
15,8,8,5,18,27,100,1,1
17,1,0,0,3,0,100,92,1
24,1,0,3,1,7,83,100,1
30,5,0,2,6,21,14,100,1
8,11,1,0,1,19,100,88,1
1,1,0,1,0,6,53,100,1
11,1,0,2,2,30,21,100,1
13,9,3,0,2,100,51,64,1
6,4,4,6,9,86,30,100,1
43,29,6,3,4,37,100,75,1
14,9,0,6,1,12,80,100,1
13,0,10,6,6,100,1,69,1
11,8,0,0,1,16,100,21,1
4,20,0,4,4,100,16,66,1
25,5,1,5,10,44,91,100,1
14,1,2,0,6,0,0,100,1
5,13,0,1,6,8,62,100,1
12,5,1,1,1,10,1,100,1
27,47,25,5,12,5,100,97,1
21,4,4,9,4,4,80,100,1
2,5,6,1,2,32,72,100,1
3,11,0,1,1,0,11,100,1
2,5,1,1,5,27,34,100,1
50,25,2,2,13,66,100,66,1
29,2,2,0,5,26,100,58,1
14,9,9,5,3,13,29,100,1
11,9,4,1,5,3,32,100,1
5,11,0,0,0,10,1,100,1
7,2,3,1,0,26,15,100,1
2,8,2,2,1,2,34,100,1
1,11,2,1,1,2,100,22,1
19,6,1,0,2,11,51,100,1
0,4,0,1,0,10,9,100,1
9,3,4,2,2,14,3,100,1
12,1,1,1,3,10,39,100,1
6,9,1,1,8,37,100,0,1
5,3,2,0,1,40,100,32,1
4,1,0,3,8,4,40,100,1
28,1,1,4,0,27,31,100,1
5,1,0,3,1,0,100,61,1
5,1,1,0,1,8,55,100,1
11,0,1,1,1,2,54,100,1
13,6,1,1,1,17,77,100,1
27,6,5,0,1,25,100,23,1
10,19,0,1,3,8,35,100,1
7,5,1,1,3,48,84,100,1
4,18,2,2,6,36,51,100,1
7,8,7,0,0,3,89,100,1
6,4,5,5,5,6,17,100,1
4,11,1,0,1,7,100,49,1
48,41,12,3,12,25,87,100,1
2,0,7,0,2,11,64,100,1
15,2,2,0,2,100,55,92,1
2,21,3,0,6,0,3,100,1
21,43,5,1,3,39,100,29,1
15,19,5,0,5,77,30,100,1
2,10,0,0,3,13,20,100,1
8,3,0,3,2,8,16,100,1
1,12,8,5,0,20,28,100,1
5,0,2,5,13,15,86,100,1
6,2,1,0,1,7,17,100,1
15,8,1,5,13,8,51,100,1
5,8,2,0,0,43,14,100,1
16,6,7,0,1,58,44,100,1
6,1,0,0,2,19,54,100,1
16,61,37,6,13,74,15,100,1
22,8,8,4,2,100,12,97,1
5,0,5,0,0,19,100,93,1
67,80,52,12,0,84,66,100,1
10,3,7,0,9,100,67,80,1
15,46,1,11,11,23,100,26,1
6,53,15,9,15,6,39,100,1
28,2,14,2,2,2,92,100,1
24,11,3,6,3,78,80,100,1
13,23,0,3,0,100,41,12,1
7,16,20,1,9,100,44,51,1
3,15,6,0,5,18,100,3,1
7,1,3,0,15,100,77,96,1
5,0,0,0,4,39,28,100,1
20,13,1,1,4,26,89,100,1
7,3,5,7,10,46,100,37,1
18,5,20,12,6,15,21,100,1
17,48,1,9,9,88,100,1,1
30,50,40,18,32,100,87,5,1
0,2,8,4,11,100,39,38,1
1,0,36,100,1,5,6,3,1
0,16,100,76,1,8,4,1,1
24,3,11,7,1,18,100,72,1
21,11,11,7,10,74,80,100,1
0,0,1,10,20,14,22,100,1
30,53,100,77,36,0,18,2,1
9,1,1,0,1,74,100,76,1
17,16,5,8,0,30,100,52,1
58,30,1,5,13,65,100,86,1
26,22,14,0,4,73,88,100,1
9,21,24,4,8,100,47,42,1
35,100,100,67,53,32,10,35,1
44,41,100,0,4,27,32,23,1
4,5,58,100,29,1,1,2,1
19,60,41,6,47,100,19,89,1
48,95,39,22,9,100,48,87,1
17,78,50,7,9,100,41,84,1
23,51,75,12,100,66,10,1,1
4,0,4,0,1,39,100,57,1
7,39,35,28,7,100,94,79,1
35,28,83,11,28,71,100,56,1
0,23,45,19,20,100,27,23,1
9,26,100,82,13,15,18,4,1
4,16,3,7,15,82,27,100,1
100,2,23,16,9,18,77,61,1
12,15,15,94,2,61,100,20,1
7,15,100,33,1,58,35,25,1
42,60,100,0,5,17,37,45,1
10,2,9,1,0,54,100,24,1
29,51,6,6,38,9,100,90,1
19,18,0,9,22,21,100,5,1
46,31,4,26,4,82,2,100,1
19,23,25,11,31,100,68,92,1
58,37,37,10,3,24,100,79,1
38,22,2,3,6,100,24,16,1
5,15,20,2,3,1,100,75,1
0,14,0,7,0,100,11,16,1
14,2,2,1,0,4,100,52,1
33,48,3,0,0,19,5,100,1
7,8,2,0,12,12,27,100,1
10,38,12,4,10,10,100,72,1
4,5,4,1,1,100,16,91,1
14,48,12,17,24,100,58,60,1
47,9,9,12,25,100,90,70,1
44,22,3,1,2,24,62,100,1
16,14,7,0,1,48,44,100,1
25,12,5,1,2,18,17,100,1
28,2,6,2,6,48,40,100,1
2,26,4,2,2,8,100,69,1
3,5,9,1,1,31,33,100,1
18,4,9,3,0,100,96,72,1
13,0,0,0,11,6,45,100,1
9,6,1,1,4,0,1,100,1
60,25,2,4,18,6,33,100,1
27,1,3,0,2,6,100,79,1
18,36,5,9,7,21,100,60,1
9,40,14,0,1,45,17,100,1
2,12,1,0,2,9,35,100,1
53,4,0,0,6,62,100,88,1
33,19,2,4,7,40,40,100,1
12,22,2,0,4,58,85,100,1
4,12,0,0,4,18,6,100,1
2,11,3,0,1,23,100,26,1
30,15,5,8,16,75,43,100,1
5,2,0,3,5,13,62,100,1
9,13,2,0,0,21,41,100,1
0,3,2,0,2,38,19,100,1
3,11,3,0,5,19,11,100,1
12,15,8,3,2,0,3,100,1
4,3,0,3,0,14,4,100,1
6,3,2,0,1,6,6,100,1
0,15,100,23,2,0,0,0,1
1,8,100,32,1,0,0,1,1
15,1,1,0,1,16,73,100,1
22,1,0,0,10,19,14,100,1
3,5,3,5,17,17,100,40,1
41,1,3,0,2,9,100,60,1
21,0,1,3,0,29,100,90,1
4,2,0,0,0,4,0,100,1
17,0,0,1,0,27,35,100,1
32,10,1,1,0,63,100,23,1
23,5,7,5,2,100,97,82,1
22,0,1,4,0,16,100,43,1
73,33,6,3,3,100,93,83,1
3,1,1,2,3,48,74,100,1
1,9,0,13,9,100,66,70,1
11,6,2,2,1,38,26,100,1
7,7,1,2,1,33,8,100,1
18,1,4,7,4,54,10,100,1
8,5,0,0,3,56,6,100,1
0,9,0,6,7,100,7,51,1
29,14,7,4,3,30,100,2,1
1,23,1,1,5,64,100,72,1
12,10,1,3,5,14,65,100,1
11,100,72,48,13,6,2,0,1
5,17,3,1,6,35,100,3,1
36,5,15,5,0,31,100,83,1
14,23,12,0,10,58,68,100,1
39,35,9,7,22,100,84,57,1
7,23,3,3,25,100,51,17,1
6,14,5,1,23,100,15,85,1
40,6,7,3,6,100,44,100,1
6,32,0,0,12,83,5,100,1
3,1,1,1,17,100,50,20,1
3,1,1,1,17,100,50,20,1
5,37,100,43,1,24,3,2,1
24,24,29,12,1,64,19,100,1
12,20,8,2,0,74,100,78,1
17,49,5,1,19,68,77,100,1
7,34,14,9,3,100,96,86,1
6,58,3,10,20,100,100,21,1
97,67,40,7,22,88,57,100,1
13,15,2,0,15,100,30,73,1
30,23,15,4,14,100,11,39,1
64,14,3,1,0,17,100,67,1
43,48,7,0,5,100,4,42,1
50,21,9,4,4,70,6,100,1
21,43,34,2,0,31,24,100,1
27,20,0,8,12,66,62,100,1
40,20,1,1,5,34,26,100,1
1,23,2,1,3,100,40,5,1
8,39,8,9,14,36,24,100,1
2,5,9,0,16,100,16,43,1
60,50,6,9,6,52,100,81,1
22,16,11,4,0,54,25,100,1
37,6,1,6,1,85,1,100,1
3,5,8,5,10,64,9,100,1
16,11,2,1,0,21,47,100,1
56,14,7,5,3,10,5,100,1
100,0,13,2,11,61,86,34,1
4,11,0,1,1,58,100,51,1
20,12,1,4,3,51,46,100,1
54,27,4,4,22,100,40,56,1
26,54,32,26,30,58,22,100,1
47,58,13,13,18,26,100,39,1
38,75,28,6,2,100,65,44,1
30,61,17,5,10,97,100,20,1
60,8,10,5,9,4,32,100,1
11,36,10,0,5,24,62,100,1
12,7,5,1,1,100,18,87,1
10,17,0,1,10,100,3,8,1
1,10,1,2,19,100,97,26,1
12,44,9,9,16,100,61,42,1
16,44,2,2,4,69,36,100,1
35,42,3,6,8,100,9,45,1
35,38,10,3,4,100,15,57,1
9,11,3,9,8,100,9,69,1
18,7,6,1,15,68,59,100,1
40,22,21,4,9,59,22,100,1
3,33,17,6,7,100,92,82,1
55,88,13,16,23,62,100,16,1
25,13,1,1,4,23,34,100,1
25,1,11,6,1,51,36,100,1
23,14,7,4,5,13,100,49,1
7,7,0,0,3,100,7,30,1
9,75,2,4,2,63,82,100,1
8,4,2,4,5,100,91,45,1
35,1,7,1,17,100,61,10,1
19,3,14,4,1,100,14,23,1
12,10,17,3,7,100,3,55,1
20,30,13,4,0,38,71,100,1
30,5,13,2,22,100,17,100,1
1,15,6,2,25,100,0,8,1
20,2,4,2,2,100,46,18,1
35,15,3,6,8,88,69,100,1
57,29,4,1,0,57,100,39,1
5,12,3,2,4,100,2,19,1
47,22,5,4,4,10,70,100,1
23,1,1,1,13,90,17,100,1
18,21,13,5,0,59,97,100,1
25,20,2,1,2,100,10,22,1
37,14,10,5,5,5,28,100,1
22,1,9,6,6,15,7,100,1
41,92,39,0,4,100,26,82,1
25,30,4,0,6,100,23,82,1
12,3,3,1,0,100,4,81,1
32,9,2,1,5,78,100,57,1
12,12,2,5,5,26,15,100,1
32,27,1,0,1,74,5,100,1
11,6,6,3,2,37,75,100,1
5,20,5,1,0,34,72,100,1
16,9,0,2,2,83,100,85,1
3,17,12,3,0,36,87,100,1
23,46,34,4,0,100,30,0,1
37,21,6,3,3,87,100,62,1
86,10,2,16,13,89,70,100,1
27,32,22,8,1,72,69,100,1
20,22,9,8,4,76,62,100,1
0,47,15,0,5,50,49,100,1
36,31,17,0,0,100,51,93,1
38,0,4,6,21,40,1,100,1
18,3,6,3,10,20,0,100,1
7,3,8,6,11,83,26,100,1
0,9,1,3,1,72,0,100,1
25,3,10,1,0,14,55,100,1
46,100,17,4,9,0,65,19,1
21,21,15,7,7,61,100,8,1
26,15,5,1,1,11,27,100,1
4,7,0,3,1,64,66,100,1
30,37,13,4,2,55,25,100,1
1,9,3,2,3,46,19,100,1
18,0,0,0,0,12,46,100,1
2,4,100,56,4,6,4,46,1
3,12,1,3,10,20,49,100,1
10,11,3,0,4,23,100,34,1
24,14,17,4,7,45,25,100,1
33,25,7,2,20,69,100,25,1
9,11,0,7,0,100,27,42,1
16,1,0,1,5,36,38,100,1
2,11,18,6,37,39,100,44,1
12,10,8,10,8,60,16,100,1
1,13,13,3,8,86,100,85,1
13,4,6,1,0,9,100,49,1
48,19,13,9,3,38,85,100,1
29,35,5,11,11,9,100,62,1
45,30,11,3,5,54,100,83,1
100,50,13,6,26,73,6,73,1
12,19,6,4,6,100,2,10,1
13,4,6,4,0,21,100,55,1
31,24,20,15,3,100,48,68,1
43,6,2,0,13,18,57,100,1
100,8,0,5,17,18,27,94,1
11,22,14,1,12,47,100,33,1
53,17,8,4,1,35,24,100,1
100,35,12,17,0,54,40,3,1
41,8,10,7,5,91,20,100,1
16,46,23,16,8,46,33,100,1
21,13,14,4,1,76,0,100,1
55,66,31,8,44,55,100,80,1
32,4,1,4,17,51,100,5,1
24,12,25,17,14,100,4,70,1
49,0,10,15,5,34,100,71,1
97,63,33,5,36,11,13,100,1
37,5,3,2,13,42,100,12,1
49,20,7,10,18,92,100,70,1
5,7,14,5,17,36,100,55,1
29,61,50,14,7,11,72,100,1
13,1,15,7,2,81,100,76,1
3,28,8,6,4,100,37,0,1
1,10,4,0,0,5,18,100,1
19,26,28,1,1,10,100,35,1
100,79,22,22,24,5,48,44,1
58,30,19,8,9,25,17,100,1
6,8,0,7,1,100,38,11,1
1,28,8,0,0,1,100,37,1
17,32,1,3,0,6,100,74,1
32,19,1,4,4,17,94,100,1
77,100,31,31,18,18,100,86,1
24,0,2,1,6,54,100,10,1
20,23,12,5,7,100,87,25,1
15,69,15,0,6,51,87,100,1
21,30,11,1,2,65,15,100,1
36,2,29,12,29,70,100,53,1
18,16,2,6,8,6,45,100,1
7,23,11,4,11,29,100,70,1
30,1,1,0,3,33,30,100,1
0,37,10,1,1,64,100,35,1
23,28,23,12,5,43,66,100,1
67,30,10,8,4,18,63,100,1
35,44,11,3,1,92,100,96,1
35,58,22,11,8,72,100,75,1
28,26,1,0,7,53,30,100,1
4,4,3,0,2,100,55,20,1
21,1,1,2,1,0,57,100,1
18,20,8,0,0,63,61,100,1
35,3,1,0,0,66,32,100,1
7,2,0,0,4,32,17,100,1
1,0,0,0,4,24,3,100,1
4,0,1,0,0,11,89,100,1
15,0,1,1,0,3,100,91,1
10,29,15,9,5,24,100,52,1
30,14,2,2,4,24,100,46,1
41,16,9,1,9,45,92,100,1
5,14,1,0,1,100,83,1,1
1,7,4,0,4,12,85,100,1
62,2,2,0,4,32,30,100,1
50,17,3,6,10,32,21,100,1
48,100,13,0,2,9,65,13,1
19,66,28,1,1,1,24,100,1
17,1,7,4,19,97,29,100,1
23,46,12,6,0,68,73,100,1
33,23,12,3,0,100,60,75,1
6,5,5,1,0,100,26,40,1
9,2,7,2,12,100,43,75,1
19,9,9,9,9,16,87,100,1
2,11,1,6,1,99,100,79,1
26,14,1,0,0,100,0,40,1
2,8,1,1,2,44,100,85,1
14,47,0,1,1,5,57,100,2
22,18,16,7,1,6,100,28,2
16,97,100,13,3,2,6,32,2
10,23,10,4,10,38,95,100,2
13,16,19,17,2,18,100,29,2
29,100,35,32,13,21,35,65,2
4,50,29,12,7,2,100,26,2
16,100,78,30,16,18,78,98,2
33,69,58,58,14,26,89,100,2
46,100,93,6,8,0,24,4,2
40,100,35,22,17,2,62,37,2
9,100,75,16,6,20,13,15,2
15,16,23,13,5,8,39,100,2
2,42,61,28,23,35,73,100,2
15,31,2,5,0,1,54,100,2
26,54,52,13,5,16,100,43,2
15,100,67,22,27,32,87,70,2
16,100,92,16,6,4,52,56,2
26,37,64,3,4,12,100,59,2
9,18,34,1,1,15,100,59,2
13,79,100,34,17,24,53,62,2
29,100,97,17,0,23,64,5,2
2,26,16,5,2,0,1,100,2
25,27,87,0,1,14,100,70,2
24,97,100,18,14,8,42,61,2
2,100,0,0,0,6,88,67,2
26,32,12,7,5,10,100,78,2
20,100,6,3,1,0,48,29,2
6,100,7,0,0,15,30,15,2
1,98,66,3,0,1,100,80,2
3,63,82,31,1,7,100,15,2
7,100,73,21,13,2,15,47,2
14,19,100,36,10,0,29,76,2
2,41,52,14,7,3,0,100,2
0,78,100,74,16,64,100,58,2
27,87,6,12,12,6,100,78,2
12,37,4,4,1,10,100,19,2
3,53,45,14,3,49,100,37,2
48,100,25,53,23,12,33,5,2
11,100,14,7,10,17,39,30,2
21,6,18,24,3,1,44,100,2
1,43,20,17,14,5,100,88,2
20,60,100,22,13,12,17,53,2
22,100,31,13,1,4,33,26,2
0,70,100,34,2,16,60,82,2
10,1,1,13,2,13,100,79,2
15,100,100,19,8,4,35,81,2
30,55,100,20,0,6,73,1,2
37,87,100,36,15,1,33,58,2
56,10,35,40,16,100,75,37,2
0,3,32,7,0,3,100,18,2
23,0,100,8,0,13,58,11,2
12,100,28,6,6,22,11,2,2
25,100,76,13,20,9,39,18,2
8,65,38,10,0,17,19,100,2
17,100,28,1,0,5,2,4,2
5,100,20,0,1,0,19,9,2
14,23,100,9,4,16,61,40,2
5,100,72,12,12,8,15,11,2
13,47,100,10,7,7,10,0,2
22,100,66,17,3,3,36,68,2
8,15,59,11,2,5,100,54,2
20,100,15,8,6,1,50,41,2
10,60,25,2,1,2,35,100,2
42,66,56,14,16,22,100,20,2
60,95,65,43,34,39,30,100,2
35,93,12,9,3,9,100,61,2
17,100,47,0,0,0,32,18,2
41,100,77,26,12,16,48,54,2
1,59,15,1,5,16,100,32,2
3,100,45,0,6,9,70,75,2
7,31,29,1,1,5,100,45,2
12,12,5,7,0,0,100,87,2
9,1,23,23,10,21,36,100,2
34,15,11,65,21,1,32,100,2
36,3,100,32,27,1,84,82,2
10,100,45,5,4,5,18,31,2
0,34,35,22,6,14,100,17,2
15,100,47,0,8,3,10,31,2
8,34,100,23,2,7,47,11,2
28,81,100,52,23,18,52,42,2
1,78,12,8,3,12,56,100,2
2,88,16,11,7,16,11,100,2
3,32,100,1,0,27,1,64,2
28,85,25,9,9,1,22,100,2
2,93,100,44,20,29,79,20,2
0,66,14,7,7,15,100,39,2
18,100,32,16,14,28,34,20,2
1,9,16,10,3,3,100,43,2
5,7,45,5,8,12,100,17,2
3,51,48,13,9,13,100,71,2
1,43,100,24,8,0,50,39,2
14,100,71,11,4,0,8,44,2
8,0,100,19,5,16,94,66,2
14,100,35,5,1,0,15,21,2
18,7,66,18,5,14,100,1,2
16,77,3,9,4,6,100,27,2
7,0,35,9,4,0,0,100,2
4,5,1,1,0,0,92,100,2
27,57,100,48,6,6,42,24,2
7,100,71,28,17,15,71,35,2
16,100,53,25,8,4,33,26,2
3,100,86,46,13,3,76,26,2
24,0,55,12,16,4,16,100,2
11,10,25,2,4,1,55,100,2
21,100,95,21,7,8,75,46,2
4,12,40,18,3,6,31,100,2
33,100,67,0,1,5,30,54,2
6,69,93,15,0,2,100,15,2
10,32,18,4,12,22,100,14,2
2,77,84,25,6,4,65,100,2
11,79,2,2,4,4,86,100,2
2,46,46,17,2,2,68,100,2
6,12,37,3,1,8,100,94,2
9,25,69,15,0,16,51,100,2
7,100,33,14,5,3,57,14,2
14,18,85,12,22,36,100,65,2
21,35,72,2,16,40,100,29,2
7,86,100,13,0,4,25,9,2
5,100,28,10,4,11,93,33,2
30,20,66,2,0,56,61,100,2
13,61,0,0,0,40,100,47,2
5,28,17,14,1,8,100,25,2
19,3,34,11,10,19,100,68,2
0,22,8,6,6,9,100,20,2
8,100,2,0,2,13,75,88,2
1,100,22,1,1,9,5,5,2
1,35,100,33,14,3,17,1,2
16,18,18,8,4,10,34,100,2
18,7,71,30,9,3,3,100,2
12,19,1,0,0,7,100,5,2
14,100,1,12,3,7,3,36,2
3,73,23,10,3,1,13,100,2
0,18,27,13,8,1,100,11,2
7,100,5,15,12,3,36,0,2
6,100,37,10,0,6,42,87,2
1,33,1,3,2,0,100,7,2
1,25,100,25,17,10,23,21,2
16,9,60,13,4,4,79,100,2
15,30,21,7,0,3,100,62,2
18,100,12,12,6,8,100,2,2
17,35,35,10,2,12,100,45,2
21,100,53,5,0,1,1,65,2
17,100,65,27,7,15,50,62,2
10,46,26,14,2,10,100,16,2
0,10,50,12,0,6,94,100,2
25,100,54,25,0,9,100,16,2
6,0,20,3,0,0,24,100,2
42,100,100,22,11,17,11,14,2
1,1,45,6,4,0,100,0,2
1,100,34,9,1,9,70,5,2
14,35,100,19,2,2,66,50,2
13,34,100,17,4,2,78,84,2
11,39,15,6,1,1,11,100,2
13,75,44,19,11,22,100,36,2
12,100,36,6,0,10,96,12,2
15,35,100,55,17,11,44,22,2
7,42,100,45,14,0,61,4,2
14,52,69,26,9,15,100,49,2
9,92,65,21,4,0,100,2,2
4,100,3,1,0,11,67,6,2
4,52,32,0,1,6,23,100,2
17,65,100,6,12,46,91,74,2
22,79,64,23,9,14,51,100,2
26,68,68,39,4,63,39,100,2
28,100,40,19,42,10,14,96,2
6,100,8,26,20,16,26,81,2
4,25,88,29,1,15,100,20,2
81,6,34,9,18,71,100,31,2
36,26,75,21,0,28,100,35,2
20,48,23,27,0,3,100,21,2
1,18,66,42,5,1,100,27,2
10,54,23,2,5,10,100,56,2
23,6,100,21,4,3,21,34,2
8,7,100,3,3,6,56,52,2
51,100,14,3,4,1,17,77,2
53,100,20,18,13,8,2,53,2
6,55,100,22,15,10,72,70,2
31,11,73,0,20,14,100,82,2
26,100,88,0,1,7,31,39,2
1,34,40,1,0,6,34,100,2
48,69,75,8,2,10,100,12,2
21,89,13,0,0,9,85,100,2
4,55,27,1,1,10,100,1,2
31,95,100,5,4,15,93,46,2
3,22,13,8,1,1,50,100,2
5,0,19,17,2,30,27,100,2
2,100,23,6,2,7,87,17,2
38,100,11,30,19,20,88,31,2
20,75,69,31,13,0,100,37,2
42,31,100,18,27,0,10,8,2
1,5,35,1,13,26,100,48,2
2,100,71,8,11,0,50,11,2
0,17,1,1,1,17,100,8,2
21,23,50,2,3,8,100,1,2
33,100,78,12,0,4,28,1,2
9,76,27,7,3,3,100,41,2
4,29,100,5,2,54,4,24,2
17,80,100,43,12,21,1,2,2
7,38,100,26,6,1,40,6,2
4,100,78,14,21,35,50,16,2
5,48,25,11,9,12,100,2,2
12,80,100,28,5,29,65,24,2
29,100,64,26,0,3,95,46,2
52,83,58,22,16,16,89,100,2
8,72,54,40,8,15,26,100,2
8,100,65,15,10,0,38,30,2
11,100,32,23,8,2,2,37,2
22,59,96,17,10,14,28,100,2
1,18,100,40,15,28,74,28,2
33,65,21,10,0,9,22,100,2
16,52,100,10,1,30,16,45,2
33,50,46,0,0,40,100,30,2
24,85,1,19,13,3,0,100,2
62,100,53,39,14,12,60,53,2
15,4,100,13,1,13,3,32,2
29,78,85,12,2,12,100,95,2
21,8,46,14,3,10,35,100,2
7,59,25,0,0,4,100,14,2
8,100,8,15,0,8,79,1,2
7,32,28,28,1,1,100,94,2
25,100,70,9,0,4,30,59,2
17,100,45,6,1,3,12,82,2
15,100,19,2,0,9,16,6,2
13,33,27,0,0,1,18,100,2
13,26,31,18,6,3,30,100,2
10,100,98,20,1,13,11,11,2
31,100,0,11,0,6,65,95,2
6,50,6,3,6,4,100,14,2
0,100,80,25,19,38,55,89,2
22,97,7,4,1,1,100,18,2
8,100,52,10,11,1,29,18,2
2,67,76,14,26,8,44,100,2
16,100,54,10,10,5,18,3,2
10,44,38,4,2,7,41,100,2
9,5,3,6,1,9,100,17,2
14,63,100,12,14,2,85,48,2
4,37,21,9,2,7,100,43,2
8,44,100,19,9,24,22,85,2
16,60,100,60,30,0,70,73,2
29,21,60,26,9,4,100,23,2
20,25,26,4,8,30,100,2,2
16,100,27,3,1,6,36,59,2
9,27,100,11,13,2,86,0,2
17,100,3,7,5,3,30,82,2
14,100,78,11,2,1,42,29,2
5,100,53,7,3,14,11,30,2
25,92,71,1,8,17,100,71,2
16,63,59,9,2,3,12,100,2
17,100,31,0,5,15,71,59,2
15,18,100,10,8,15,69,98,2
41,100,86,32,25,11,67,62,2
5,73,98,10,5,17,19,100,2
6,61,100,26,14,12,20,46,2
7,100,16,3,5,1,70,38,2
23,32,2,9,4,8,100,90,2
34,79,100,10,3,6,13,77,2
33,51,57,11,2,8,100,53,2
5,29,52,12,1,14,100,20,2
10,100,81,5,5,3,28,25,2
23,100,91,23,0,4,59,82,2
18,4,9,1,4,2,8,100,2
5,8,2,0,0,0,20,100,2
6,14,0,11,5,4,38,100,2
100,91,59,34,23,31,51,72,2
21,100,82,32,15,50,57,0,2
16,33,42,16,1,1,100,67,2
1,35,56,11,7,16,100,39,2
0,66,100,78,39,6,48,9,2
60,26,100,20,1,1,92,95,2
15,76,18,4,3,5,26,100,2
4,100,60,11,5,8,70,1,2
40,6,68,4,8,28,51,100,2
17,100,50,12,12,0,27,72,2
19,100,79,5,0,0,2,25,2
62,100,35,5,5,9,50,9,2
31,1,13,1,2,3,1,100,2
2,2,37,4,1,8,100,6,2
7,100,0,7,3,1,22,59,2
1,100,9,1,3,3,60,6,2
8,67,20,7,5,3,15,100,2
4,73,46,12,2,12,100,67,2
10,58,40,32,3,20,100,72,2
0,15,31,3,1,10,100,41,2
0,100,38,19,1,9,86,13,2
13,100,2,3,0,6,32,28,2
15,19,43,18,2,2,1,100,2
8,57,22,11,3,1,19,100,2
13,55,80,36,5,8,100,28,2
0,6,25,9,0,0,34,100,2
15,78,17,1,1,3,76,100,2
21,100,45,2,16,21,72,51,2
0,79,17,1,0,2,100,47,2
16,68,14,2,6,2,44,100,2
2,36,53,2,2,4,48,100,2
21,84,42,6,4,0,14,100,2
34,36,18,2,10,28,36,100,2
100,93,94,37,29,37,50,62,2
54,84,24,1,2,2,27,100,2
27,100,44,1,1,1,38,23,2
29,100,45,21,8,8,25,75,2
15,100,26,10,1,6,15,26,2
15,100,83,13,1,0,14,58,2
24,100,57,7,0,0,4,15,2
13,61,0,1,2,1,59,100,2
46,100,29,13,0,0,11,45,2
41,79,87,30,15,10,58,100,2
62,100,14,1,3,7,67,7,2
7,15,8,5,5,13,100,10,2
18,100,77,10,5,13,91,29,2
20,16,52,16,6,12,100,29,2
16,67,70,20,12,10,100,12,2
33,100,75,14,41,14,28,55,2
10,40,70,16,20,16,100,83,2
10,100,11,5,0,1,76,27,2
20,100,15,10,5,15,55,8,2
5,4,14,10,10,13,100,10,2
20,100,71,23,7,4,62,1,2
41,23,35,17,0,8,100,62,2
12,53,1,15,6,1,100,1,2
31,81,100,18,0,10,77,81,2
29,100,54,56,15,1,0,41,2
13,100,0,10,1,1,69,0,2
5,100,46,1,1,5,48,0,2
1,100,5,50,18,1,74,1,2
3,28,2,0,0,6,100,16,2
3,92,100,80,15,3,92,53,2
0,12,15,9,3,1,100,7,2
20,100,79,30,5,5,40,1,2
9,100,36,6,1,8,20,19,2
5,51,51,40,21,2,100,18,2
0,42,21,3,3,3,100,5,2
16,100,43,9,8,4,43,29,2
13,44,35,9,2,1,100,16,2
7,44,7,20,9,3,100,0,2
0,61,0,22,3,3,100,14,2
18,89,37,35,10,0,100,16,2
7,100,7,8,10,2,34,1,2
5,79,40,1,11,5,100,7,2
33,95,25,10,0,6,100,20,2
9,52,8,13,6,7,100,38,2
5,65,5,1,3,2,100,1,2
7,70,100,33,11,3,76,0,2
19,23,20,1,1,0,100,2,2
29,36,21,9,0,5,29,100,2
0,19,20,9,0,0,100,8,2
1,100,45,31,3,1,41,15,2
2,100,80,5,0,0,57,25,2
8,10,22,1,1,10,100,4,2
3,14,19,36,22,8,100,5,2
33,10,100,9,7,22,18,10,2
14,100,84,3,7,1,63,24,2
49,39,100,66,37,60,1,76,2
35,100,84,26,11,14,60,48,2
38,62,68,18,2,2,100,26,2
7,68,15,1,2,4,16,100,2
21,11,100,19,13,0,8,37,2
3,100,15,7,7,5,57,24,2
2,10,100,2,0,6,88,10,2
18,72,34,18,4,18,100,68,2
31,95,100,44,34,2,19,21,2
23,38,34,11,3,15,100,56,2
18,100,46,26,9,1,16,30,2
0,83,77,2,1,35,100,28,2
3,61,12,5,7,10,32,100,2
3,69,1,13,6,10,100,3,2
13,63,69,25,8,0,83,100,2
22,9,47,9,4,0,97,100,2
8,100,23,0,0,1,10,46,2
2,32,14,3,1,13,100,9,2
23,45,35,1,0,7,21,100,2
1,100,37,8,4,7,59,13,2
8,21,80,19,4,0,4,100,2
26,95,100,2,0,2,95,71,2
0,12,68,35,6,4,100,41,2
19,100,21,15,12,2,63,26,2
3,100,33,0,8,25,98,62,2
4,60,11,11,11,13,77,100,2
7,62,100,15,5,0,9,0,2
21,100,40,2,8,2,16,100,2
14,100,68,11,8,17,89,26,2
23,100,14,0,3,7,32,3,2
7,2,58,12,2,7,90,100,2
12,10,8,1,6,0,100,77,2
2,100,7,2,7,7,90,87,2
8,24,0,10,7,10,100,33,2
9,65,3,0,3,13,100,48,2
24,69,20,11,10,11,56,100,2
23,76,100,26,21,21,57,68,2
4,8,49,13,7,26,100,22,2
2,25,77,0,2,2,80,100,2
0,100,57,0,0,1,40,80,2
16,23,73,3,1,14,100,26,2
13,100,13,18,9,23,58,2,2
46,0,100,44,8,30,96,24,2
13,15,23,11,6,1,100,0,2
0,100,5,2,1,2,31,36,2
12,42,10,12,17,12,57,100,2
21,100,28,0,2,4,59,23,2
9,81,18,0,4,13,100,23,2
9,66,23,0,15,13,100,92,2
1,20,14,8,1,7,46,100,2
0,79,60,8,8,2,100,100,2
3,48,100,1,0,17,12,39,2
4,54,30,4,8,6,100,15,2
6,100,68,4,4,25,47,81,2
32,95,2,2,2,18,18,100,2
3,100,8,8,4,11,98,96,2
10,93,20,5,5,4,100,20,2
24,6,14,10,10,5,32,100,2
13,100,82,19,19,17,52,4,2
8,45,42,5,3,27,54,100,2
2,25,13,3,4,3,100,16,2
23,100,2,0,1,1,9,13,2
0,0,23,10,0,5,100,10,2
20,100,93,35,14,16,43,41,2
9,52,7,1,2,4,37,100,2
0,56,30,11,3,3,26,100,2
2,39,5,6,5,3,65,100,2
7,38,21,3,1,7,100,65,2
11,18,6,11,2,18,29,100,2
1,23,100,20,7,1,27,98,2
0,34,68,8,2,2,10,100,2
18,81,53,18,0,0,75,100,2
34,42,100,23,10,4,71,25,2
0,16,21,2,0,5,100,13,2
0,60,12,1,9,15,100,30,2
2,100,27,4,6,8,23,68,2
18,32,95,16,13,9,86,100,2
0,36,34,11,6,19,100,8,2
7,100,35,5,9,10,67,14,2
3,3,29,20,0,14,100,64,2
12,34,1,0,6,6,48,100,2
3,23,70,11,7,7,15,100,2
8,6,53,13,0,1,100,28,2
13,100,65,5,0,0,51,0,2
2,76,28,8,6,19,41,100,2
30,100,98,11,1,6,84,50,2
5,21,18,3,1,15,100,24,2
20,100,52,22,4,1,25,51,2
9,100,44,16,25,0,58,60,2
0,36,100,10,15,17,0,54,2
4,100,48,12,9,21,82,64,2
13,100,68,4,2,14,78,10,2
11,100,15,6,1,1,51,55,2
5,100,10,4,4,0,62,11,2
13,100,78,23,1,0,11,82,2
10,16,13,1,5,1,100,24,2
28,100,63,19,8,13,1,50,2
11,51,48,2,0,20,80,100,2
8,100,28,12,5,1,44,44,2
1,9,12,6,1,0,100,14,2
9,100,82,32,14,9,3,51,2
20,40,26,0,4,7,100,69,2
0,5,7,11,0,5,100,90,2
19,13,13,2,0,7,100,5,2
33,100,21,0,6,18,78,90,2
14,20,21,1,1,1,11,100,2
16,31,1,4,0,8,57,100,2
7,37,100,17,2,0,92,75,2
13,79,41,3,12,12,43,100,2
0,43,34,2,4,15,100,84,2
6,100,30,1,1,10,53,45,2
3,100,40,19,7,1,54,85,2
6,59,2,2,0,4,100,59,2
4,36,0,8,2,20,44,100,2
12,100,21,11,3,1,6,56,2
1,22,15,7,5,16,100,36,2
8,43,25,1,0,4,100,43,2
1,21,33,16,6,1,100,40,2
0,98,40,1,21,1,100,3,2
24,75,9,3,0,0,100,100,2
20,87,76,15,14,12,100,12,2
10,10,100,0,17,19,57,40,2
14,100,4,11,9,11,53,49,2
1,54,20,7,9,4,69,100,2
1,100,36,12,3,1,87,72,2
27,56,85,35,12,27,2,100,2
16,63,6,6,3,0,21,100,2
7,11,10,5,5,14,100,14,2
28,10,92,43,23,15,100,58,2
32,100,79,8,0,11,52,94,2
5,48,39,7,0,13,100,17,2
5,10,100,17,0,4,33,26,2
11,0,1,1,0,27,100,18,2
10,100,25,6,1,5,86,21,2
2,73,28,4,6,6,100,46,2
17,36,24,19,15,19,100,49,2
10,100,100,23,2,10,18,39,2
31,100,67,17,5,4,5,10,2
1,6,7,2,0,3,100,64,2
1,16,16,3,3,29,70,100,2
10,73,9,7,3,6,100,12,2
6,6,8,0,0,15,100,77,2
5,11,1,0,1,7,100,11,2
19,14,3,0,0,11,9,100,2
10,100,79,16,1,3,71,7,2
6,71,9,9,0,4,100,34,2
56,48,100,33,16,11,65,1,2
40,87,14,27,12,6,44,100,2
100,100,0,62,22,37,81,29,2
20,100,55,12,1,8,56,93,2
16,100,92,1,7,1,52,1,2
2,28,100,30,5,25,51,25,2
5,22,69,7,0,12,100,60,2
22,34,36,20,9,20,25,100,2
41,24,1,0,7,12,45,100,2
5,4,18,6,3,6,45,100,2
22,100,31,22,10,29,32,37,2
23,56,76,19,7,0,90,100,2
1,30,100,3,2,5,51,68,2
4,7,100,30,13,4,76,32,2
31,41,60,0,12,2,100,63,2
6,97,28,10,8,6,100,29,2
9,1,59,2,2,27,100,42,2
26,100,76,1,1,6,51,42,2
8,40,100,35,11,8,58,12,2
5,100,52,57,2,5,71,28,2
6,8,100,10,4,2,14,35,2
12,100,8,0,0,4,35,84,2
26,13,95,82,15,17,100,73,2
2,100,37,18,39,13,72,0,2
12,100,43,18,6,12,64,61,2
2,100,9,4,4,23,80,35,2
4,24,4,0,1,1,100,6,2
12,33,20,12,4,15,84,100,2
40,30,100,0,2,0,92,7,2
100,36,73,53,12,31,96,80,2
62,100,10,50,23,14,77,82,2
30,25,85,30,0,74,91,100,2
46,32,23,31,17,15,22,100,2
27,45,68,37,0,77,100,61,2
11,20,26,2,1,15,100,17,2
16,100,55,5,15,16,21,52,2
1,100,42,0,3,42,3,58,2
8,0,2,20,12,1,83,100,2
7,23,42,31,25,50,100,14,2
19,38,4,32,45,12,45,100,2
7,100,28,30,0,15,42,96,2
28,62,9,22,32,27,100,2,2
31,46,100,26,0,5,39,75,2
4,100,47,1,1,30,20,47,2
57,100,33,10,10,17,82,69,2
8,65,36,24,50,35,100,5,2
61,100,50,1,23,6,39,66,2
18,100,49,4,1,28,63,83,2
23,71,79,12,61,33,100,0,2
10,3,85,31,18,14,59,100,2
34,8,71,2,0,42,100,65,2
26,100,32,81,49,7,58,33,2
17,100,51,6,6,19,34,2,2
1,100,52,17,3,13,3,27,2
1,64,98,1,3,24,100,39,2
18,45,100,21,0,3,66,60,2
8,26,18,4,1,6,100,18,2
8,100,54,15,12,12,1,8,2
2,20,3,1,10,1,5,100,2
13,100,17,3,1,6,12,23,2
0,6,25,6,1,15,100,30,2
70,31,2,0,16,64,100,0,2
100,9,1,2,2,3,11,2,2
4,2,8,7,4,22,100,25,2
0,20,1,1,8,18,100,4,2
1,10,0,2,6,10,100,2,2
6,77,48,4,4,4,100,6,2
2,20,11,2,7,4,100,4,2
11,17,25,17,13,10,100,23,2
1,13,10,5,6,13,100,7,2
1,1,1,0,0,7,100,17,2
1,19,23,21,17,5,100,25,2
7,51,53,3,1,0,100,6,2
0,3,12,20,12,18,100,51,2
21,100,81,9,1,1,92,1,2
18,28,100,39,13,7,7,50,2
11,46,1,11,3,8,100,47,2
32,67,50,28,21,0,100,64,2
2,7,34,12,1,0,100,6,2
8,34,18,2,2,12,100,26,2
0,2,0,12,15,1,100,32,2
30,91,1,0,8,8,30,100,2
29,100,46,13,13,0,75,24,2
20,45,34,22,25,25,100,85,2
26,100,67,14,2,16,22,57,2
2,78,100,24,8,1,36,43,2
1,80,6,4,4,11,100,8,2
13,53,0,1,2,14,34,100,2
21,100,2,14,7,6,43,44,2
10,57,29,12,12,2,100,21,2
12,100,59,37,18,18,78,12,2
35,39,100,30,10,1,8,1,2
13,86,34,6,30,2,100,1,2
12,100,19,11,11,0,28,0,2
13,90,6,36,43,43,100,13,2
10,100,27,14,3,8,38,3,2
22,100,23,7,2,6,65,12,2
3,100,46,32,35,14,64,64,2
0,79,100,30,1,10,7,2,2
12,100,5,0,9,0,81,14,2
37,62,79,58,20,0,75,100,2
3,10,0,7,5,12,100,6,2
1,36,34,13,2,6,100,23,2
1,11,23,17,1,5,100,24,2
11,55,20,2,0,19,100,9,2
10,21,1,0,1,2,100,1,2
3,23,13,9,0,4,100,2,2
15,0,15,1,13,7,100,7,2
13,83,60,32,16,20,100,23,2
12,94,16,18,0,11,100,62,2
51,100,89,2,13,21,16,37,2
10,100,21,2,10,2,84,24,2
10,20,52,15,10,3,100,30,2
25,100,75,34,13,9,10,29,2
10,0,57,8,8,12,100,44,2
2,54,3,5,1,0,100,3,2
17,100,51,0,8,8,94,94,2
12,100,35,20,14,10,78,7,2
25,100,6,0,3,1,52,1,2
12,85,100,22,14,0,78,40,2
14,48,27,16,3,9,100,27,2
15,3,0,0,3,9,100,40,2
12,17,30,17,12,10,100,100,2
15,100,60,17,8,6,39,1,2
7,100,63,21,17,2,36,24,2
19,100,39,15,6,0,46,40,2
86,100,24,20,17,17,6,48,2
19,100,27,21,12,9,18,34,2
0,39,18,10,2,6,100,18,2
12,15,0,2,2,0,100,27,2
26,43,35,6,0,1,61,100,2
16,1,36,11,1,1,100,25,2
17,67,30,7,2,17,68,100,2
70,64,100,30,19,54,0,0,2
0,52,31,14,10,0,100,58,2
21,100,50,6,0,7,12,43,2
3,92,100,65,34,0,92,84,2
29,100,2,18,7,0,11,9,2
9,100,13,1,0,7,49,43,2
16,100,51,19,0,1,9,1,2
28,59,23,10,3,8,100,38,2
10,11,9,5,1,8,100,11,2
4,2,100,34,6,1,18,6,2
8,24,17,2,4,15,100,68,2
9,45,22,0,0,10,98,100,2
8,36,39,0,1,14,100,1,2
1,27,1,0,0,0,100,50,2
4,35,100,8,4,20,88,55,2
13,100,68,21,7,10,92,68,2
24,100,72,12,1,1,24,16,2
19,41,30,0,10,6,100,86,2
5,44,8,6,14,25,100,39,2
1,54,17,1,0,7,100,14,2
4,3,27,10,6,1,18,100,2
3,17,1,6,3,0,100,18,2
20,20,21,12,10,10,100,32,2
18,12,54,17,6,9,77,100,2
0,100,8,0,0,19,44,72,2
8,100,66,18,7,21,59,14,2
10,14,5,0,4,15,100,100,2
17,100,82,17,4,8,91,3,2
30,100,30,11,4,15,43,21,2
10,12,28,10,4,9,100,34,2
27,97,51,8,4,7,25,100,2
4,16,32,30,4,10,100,12,2
25,100,34,5,2,0,22,14,2
10,19,51,21,4,4,100,21,2
1,38,16,0,2,14,100,10,2
7,0,23,16,5,5,100,74,2
6,21,13,26,16,5,100,81,2
44,64,57,13,4,8,75,100,2
6,43,31,13,1,6,17,100,2
16,28,21,3,4,9,68,100,2
23,60,28,25,12,6,100,12,2
15,100,5,0,1,5,15,28,2
13,57,31,24,0,4,100,13,2
25,100,1,0,4,7,0,9,2
48,100,23,1,1,5,85,23,2
3,100,83,43,16,6,86,36,2
12,57,100,35,17,30,10,87,2
4,100,7,10,9,3,88,68,2
4,59,22,12,0,8,100,22,2
0,98,38,7,7,11,37,100,2
22,21,100,19,1,0,50,13,2
14,1,100,35,16,11,62,32,2
18,100,64,1,1,1,64,0,2
3,100,46,14,5,0,23,8,2
20,100,62,8,5,1,22,34,2
17,100,78,41,24,9,75,4,2
16,100,25,23,7,8,87,16,2
6,100,65,28,2,56,65,21,2
1,100,44,3,7,0,7,25,2
19,100,38,1,1,7,24,10,2
13,72,54,22,15,9,100,36,2
26,87,35,18,4,13,6,100,2
28,59,31,12,12,15,93,100,2
1,12,25,1,5,1,100,25,2
11,12,8,1,0,1,49,100,2
10,6,63,15,9,15,100,13,2
0,100,33,1,2,1,1,30,2
12,100,2,1,1,1,1,20,2
20,100,38,10,1,9,47,60,2
35,75,73,13,10,10,26,100,2
20,97,71,5,12,2,100,10,2
21,100,20,4,2,11,92,49,2
23,9,14,18,14,7,5,100,2
10,100,0,4,2,1,3,60,2
25,100,57,39,32,14,96,42,2
2,20,12,15,5,9,100,9,2
7,41,14,1,0,11,100,0,2
22,62,32,11,15,13,54,100,2
1,100,11,13,1,2,37,18,2
10,44,22,9,2,11,100,30,2
6,31,42,1,3,4,100,19,2
48,75,60,39,9,2,85,100,2
2,30,1,2,0,1,3,100,2
17,61,70,6,0,0,53,100,2
34,46,100,30,10,6,48,74,2
29,56,97,18,5,10,100,27,2
5,100,10,11,5,5,6,29,2
12,100,26,2,2,4,48,65,2
27,100,16,4,9,9,76,65,2
13,100,23,2,1,1,27,2,2
15,88,100,26,19,7,96,61,2
18,100,86,23,7,2,68,36,2
12,87,7,20,20,2,17,100,2
18,100,2,4,0,1,0,26,2
2,14,100,9,3,3,49,22,2
15,100,48,12,2,7,66,10,2
0,20,13,1,1,4,100,20,2
10,6,6,4,1,3,80,100,2
2,100,88,32,0,0,0,24,2
9,100,35,10,6,1,13,13,2
35,85,100,30,11,4,0,40,2
16,100,44,12,0,2,66,6,2
22,96,27,3,2,1,1,100,2
48,41,79,20,16,6,39,100,2
66,100,30,11,22,11,19,52,2
37,67,51,14,8,7,100,28,2
33,38,100,16,0,0,73,42,2
32,0,32,15,1,1,30,100,2
0,100,14,1,1,0,12,29,2
6,22,17,7,8,18,100,93,2
32,100,61,6,0,16,51,93,2
2,37,2,4,0,1,100,65,2
24,66,60,26,2,3,35,100,2
2,25,20,23,10,4,100,33,2
6,57,0,6,4,2,44,100,2
4,100,70,47,15,6,45,54,2
4,100,13,2,5,7,39,47,2
8,100,4,8,19,6,89,72,2
8,100,55,23,12,0,8,80,2
4,100,50,9,1,1,41,28,2
8,100,5,1,8,1,16,5,2
3,100,64,15,9,3,5,7,2
12,17,46,4,3,1,100,73,2
9,100,17,4,2,1,0,39,2
13,36,21,5,3,11,100,11,2
1,100,1,1,1,1,66,51,2
7,68,10,4,4,6,100,22,2
21,78,0,25,6,9,100,75,2
1,100,11,3,5,3,52,49,2
13,62,64,59,5,0,100,10,2
39,73,68,10,13,15,13,100,2
15,42,18,9,0,10,100,33,2
6,100,16,4,0,1,1,33,2
0,100,18,15,6,3,3,30,2
43,100,69,2,5,0,100,7,2
12,100,16,9,5,1,61,18,2
6,90,69,0,0,9,36,100,2
1,49,33,15,3,3,47,100,2
25,41,65,41,9,6,100,37,2
7,44,48,25,1,0,1,100,2
1,100,5,5,0,1,7,94,2
0,71,48,12,0,5,100,51,2
5,100,14,7,4,1,2,69,2
16,58,71,7,8,5,1,100,2
5,23,55,17,7,1,100,0,2
3,100,22,23,13,6,1,23,2
32,72,100,37,18,1,75,3,2
36,57,36,18,10,5,13,100,2
23,47,100,3,9,3,47,56,2
17,100,8,2,0,10,48,65,2
20,7,7,0,2,0,7,100,2
1,50,23,5,9,7,17,100,2
3,66,22,1,0,11,100,73,2
32,100,20,10,0,5,24,48,2
15,47,89,36,2,2,100,65,2
21,84,100,39,0,10,50,13,2
18,100,50,18,3,8,29,19,2
16,81,100,22,6,10,29,22,2
0,82,9,1,11,1,9,100,2
7,100,5,9,11,4,29,50,2
10,67,25,16,8,8,39,100,2
1,71,15,0,3,1,20,100,2
17,4,13,1,7,9,100,48,2
5,72,20,10,1,5,1,100,2
6,76,10,0,6,3,61,100,2
20,100,47,11,5,8,23,8,2
0,63,19,21,1,0,25,100,2
33,86,53,16,3,3,66,100,2
6,100,11,26,17,8,26,35,2
6,20,2,2,8,14,100,83,2
16,100,11,3,2,2,19,22,2
17,100,14,52,79,17,67,0,2
22,66,64,3,0,5,100,23,2
13,36,63,30,2,19,19,100,2
20,67,17,10,5,0,45,100,2
27,86,100,65,9,12,62,19,2
19,46,63,18,0,1,12,100,2
7,100,28,19,12,14,3,92,2
9,6,32,2,11,0,100,95,2
1,100,20,0,4,7,61,55,2
6,100,3,4,0,0,6,83,2
5,100,23,8,3,0,33,8,2
31,100,22,22,6,2,84,61,2
35,60,82,25,10,21,100,64,2
2,100,57,14,0,4,65,53,2
53,12,51,0,2,100,34,14,3
31,73,100,25,12,19,0,100,3
3,0,71,27,19,53,11,100,3
20,25,94,89,51,1,97,100,3
13,33,35,17,12,75,51,100,3
46,50,100,40,2,9,3,76,3
23,100,39,57,1,15,1,15,3
29,51,100,64,27,12,3,82,3
26,100,34,21,9,8,9,93,3
17,13,100,45,12,18,1,10,3
37,100,84,47,7,5,7,63,3
17,85,0,20,33,37,0,100,3
13,27,83,70,13,8,100,78,3
62,100,78,51,35,2,1,81,3
44,39,25,4,0,57,17,100,3
0,51,62,100,37,17,8,12,3
28,100,96,25,16,1,1,54,3
43,100,89,69,25,15,5,15,3
5,42,100,61,27,3,23,23,3
24,14,12,18,7,22,23,100,3
16,100,44,6,8,11,23,24,3
5,64,100,11,2,35,1,10,3
2,100,66,53,2,8,16,100,3
3,71,100,23,3,11,0,44,3
23,43,100,18,1,0,0,26,3
40,9,100,43,2,6,11,38,3
12,65,25,2,4,3,3,100,3
9,100,56,39,13,0,0,62,3
52,4,5,30,13,5,12,100,3
16,100,40,14,22,12,13,59,3
12,17,100,17,27,0,10,57,3
48,100,41,17,12,36,29,27,3
11,100,23,11,57,1,7,25,3
17,87,27,100,55,27,20,47,3
2,97,10,100,54,2,4,2,3
15,63,49,29,14,2,1,100,3
27,64,75,100,25,5,3,27,3
11,100,8,7,8,14,3,6,3
5,19,28,24,4,6,16,100,3
9,100,55,32,23,1,1,9,3
5,100,67,50,32,8,5,52,3
0,100,35,35,3,0,0,8,3
6,100,34,40,16,0,1,9,3
15,50,41,13,4,5,2,100,3
0,68,100,0,0,16,6,6,3
7,100,69,48,10,10,0,20,3
65,60,100,17,9,29,14,19,3
20,45,100,58,16,9,15,7,3
17,0,100,14,2,1,9,62,3
12,100,66,35,12,3,10,5,3
12,100,82,20,6,6,8,32,3
1,100,83,54,11,17,8,12,3
4,39,100,91,51,10,2,10,3
38,9,100,15,20,29,25,43,3
38,100,47,19,14,0,23,71,3
85,100,67,25,15,0,10,37,3
26,49,64,100,45,11,9,5,3
3,100,16,17,6,1,2,1,3
4,100,1,7,0,1,2,27,3
3,100,1,89,24,5,0,19,3
20,100,2,20,7,2,1,2,3
20,1,18,100,43,1,0,11,3
30,23,100,94,12,12,12,17,3
7,97,100,2,4,1,1,2,3
5,85,100,4,1,4,11,79,3
10,100,18,31,5,3,4,88,3
1,14,100,41,4,0,1,49,3
56,34,96,100,9,15,15,43,3
6,68,100,14,18,3,1,1,3
4,100,26,12,2,5,0,19,3
12,34,100,43,0,1,5,18,3
37,100,80,57,20,13,8,8,3
27,83,54,100,40,2,2,8,3
29,100,18,18,7,7,10,16,3
1,63,100,18,4,5,0,0,3
0,10,100,38,22,8,0,0,3
50,100,40,50,5,0,5,17,3
72,84,100,21,9,9,9,21,3
17,92,30,100,15,5,7,2,3
15,100,5,5,9,0,0,2,3
36,52,100,87,31,18,20,29,3
8,29,100,50,16,0,5,1,3
12,10,100,23,12,3,2,3,3
47,100,39,43,25,8,6,60,3
5,54,100,18,2,4,0,18,3
20,53,100,91,46,10,4,10,3
28,47,100,37,9,0,0,9,3
37,100,21,45,9,11,9,11,3
0,100,38,35,8,1,0,1,3
49,100,92,26,8,10,17,11,3
15,15,50,100,37,18,3,10,3
7,100,54,55,29,7,1,0,3
8,100,65,29,25,10,27,1,3
37,100,74,18,29,1,1,12,3
12,53,100,39,6,4,0,56,3
4,100,50,5,4,5,3,11,3
0,65,100,61,22,4,16,18,3
68,20,100,68,28,16,24,92,3
33,100,45,18,3,3,5,23,3
29,100,70,39,17,8,6,46,3
11,24,100,44,20,5,3,7,3
0,20,100,57,28,4,0,1,3
0,38,100,49,14,5,0,4,3
48,100,79,10,0,0,2,14,3
0,63,100,34,13,10,2,26,3
22,100,14,3,19,9,12,57,3
22,100,61,77,17,8,14,1,3
15,100,15,8,4,0,3,46,3
32,100,7,0,10,6,8,18,3
5,77,100,44,3,1,0,15,3
74,100,36,5,1,5,9,61,3
100,89,72,40,45,35,27,2,3
45,100,39,23,2,2,26,45,3
18,100,95,30,7,3,26,25,3
24,100,28,79,1,9,9,13,3
2,26,100,65,21,5,5,5,3
0,100,43,10,0,10,1,3,3
16,75,11,21,0,0,9,100,3
17,100,29,5,4,1,2,29,3
94,84,100,93,26,12,1,82,3
33,100,40,33,9,15,7,1,3
8,100,30,14,3,1,0,17,3
14,50,82,85,100,14,3,39,3
23,47,61,1,1,1,9,100,3
1,100,9,14,0,15,25,36,3
7,1,4,28,29,16,19,100,3
22,78,70,31,35,12,8,100,3
0,88,100,22,30,16,8,25,3
41,100,16,26,0,1,23,71,3
2,10,75,100,72,15,2,2,3
15,45,41,1,0,20,2,100,3
6,100,20,25,31,17,16,87,3
48,100,4,10,9,3,4,28,3
82,100,17,44,6,2,12,44,3
10,67,100,77,20,0,0,47,3
39,73,100,39,5,13,5,34,3
13,83,88,100,0,0,2,55,3
17,52,0,0,0,1,8,100,3
25,100,44,50,0,0,13,52,3
14,100,18,34,8,0,2,0,3
31,100,83,4,0,13,1,13,3
15,6,10,3,11,60,14,100,3
34,90,100,29,7,95,12,89,3
7,54,17,22,0,18,47,100,3
1,41,100,40,32,0,0,13,3
11,20,60,30,13,10,18,100,3
46,100,63,7,12,1,15,33,3
15,100,16,35,7,9,13,93,3
42,38,100,52,7,78,19,21,3
13,100,96,34,5,6,5,15,3
2,71,100,6,24,0,2,12,3
22,100,2,37,6,5,12,4,3
5,100,75,5,20,4,1,2,3
25,85,100,56,32,0,4,40,3
12,39,100,21,8,3,5,7,3
0,23,100,5,7,3,1,2,3
20,100,24,8,0,0,3,9,3
23,4,100,12,23,6,5,4,3
27,54,90,100,78,21,9,6,3
4,33,100,7,0,0,1,0,3
43,82,17,41,2,2,9,100,3
33,35,82,100,12,7,7,15,3
1,100,39,13,8,5,5,4,3
23,100,34,23,3,8,13,40,3
5,27,100,76,23,2,39,54,3
66,100,76,65,29,18,16,4,3
14,42,100,35,7,2,12,87,3
2,40,37,22,12,18,8,100,3
17,100,12,65,31,10,2,21,3
16,6,100,33,1,2,3,15,3
12,94,21,6,6,13,12,100,3
1,100,58,15,1,1,6,61,3
100,56,82,41,10,0,5,79,3
82,100,7,49,21,23,1,21,3
35,100,33,41,12,10,27,24,3
6,100,15,17,0,18,12,96,3
20,30,100,82,22,8,1,11,3
32,89,100,89,0,13,0,37,3
0,30,50,7,0,26,17,100,3
11,100,36,92,36,28,5,28,3
32,100,14,8,4,6,18,51,3
23,100,71,21,4,14,2,63,3
32,100,61,23,7,9,7,18,3
15,17,100,4,9,1,3,75,3
44,100,94,2,0,0,19,72,3
12,100,10,20,52,0,0,46,3
28,13,100,27,4,2,8,9,3
47,83,100,28,7,0,0,26,3
15,74,100,93,9,3,7,19,3
8,80,100,20,6,0,3,10,3
25,100,81,0,2,2,12,88,3
9,100,33,52,7,23,37,25,3
2,3,17,7,0,8,8,100,3
5,51,45,51,18,13,100,64,3
13,100,0,34,5,0,0,13,3
7,18,100,60,15,2,0,11,3
36,86,33,100,41,8,8,8,3
22,100,75,70,35,8,4,60,3
36,84,63,100,69,19,6,34,3
45,100,52,92,27,13,27,95,3
1,100,68,45,13,1,2,1,3
1,11,100,37,16,1,0,8,3
30,13,80,66,36,3,23,100,3
34,93,100,20,18,6,2,81,3
18,68,56,37,28,18,18,100,3
52,86,62,14,0,16,12,100,3
17,100,7,8,24,2,6,1,3
21,10,100,9,12,1,12,34,3
14,100,62,22,8,0,0,0,3
10,22,100,35,10,3,10,35,3
29,35,100,29,9,9,0,23,3
20,72,100,44,58,6,13,31,3
8,50,57,52,0,1,2,100,3
21,14,100,40,4,0,1,4,3
29,36,100,70,21,6,15,73,3
44,2,8,16,2,0,10,100,3
42,8,85,100,5,11,14,31,3
11,100,62,37,20,0,6,58,3
13,37,100,41,26,12,12,25,3
24,70,100,56,7,17,24,14,3
1,90,100,30,4,1,0,69,3
22,100,63,22,10,1,4,9,3
5,76,100,67,36,13,7,27,3
16,67,100,27,11,4,4,30,3
1,100,20,46,16,4,7,46,3
16,42,100,24,10,1,0,77,3
20,100,24,20,0,0,1,8,3
4,5,44,1,0,1,7,100,3
12,84,100,21,0,2,10,56,3
1,100,3,9,0,1,5,5,3
3,100,62,14,0,2,0,0,3
10,58,70,100,38,8,3,15,3
12,34,14,7,3,0,3,100,3
17,91,33,1,1,0,1,100,3
3,7,29,26,10,4,8,100,3
17,100,94,34,10,5,28,50,3
38,100,26,1,5,14,8,40,3
14,100,41,34,19,9,41,85,3
5,56,73,39,9,4,2,100,3
28,100,21,28,3,1,1,42,3
39,100,4,82,15,10,6,82,3
1,8,100,4,5,1,3,2,3
4,55,1,7,0,1,9,100,3
35,74,74,100,32,9,6,9,3
18,100,56,30,8,5,15,40,3
21,100,23,2,1,2,1,52,3
17,100,1,48,3,1,5,61,3
16,12,23,2,3,1,4,100,3
16,77,22,3,1,0,0,100,3
9,92,100,19,4,1,0,63,3
41,100,52,6,12,4,12,28,3
11,53,63,56,15,3,25,100,3
28,36,100,10,18,18,23,55,3
5,26,82,35,8,0,0,100,3
13,1,100,12,0,1,1,32,3
6,76,8,60,15,1,13,100,3
12,22,100,12,8,1,2,0,3
11,28,51,51,19,1,0,100,3
5,41,28,51,15,10,25,100,3
0,25,100,9,1,1,0,28,3
3,36,100,4,3,0,0,20,3
9,96,83,37,10,0,10,100,3
13,100,29,0,2,2,3,58,3
3,66,0,43,3,2,11,100,3
0,5,100,25,5,10,15,41,3
10,100,38,34,29,5,5,85,3
3,99,46,11,0,0,0,100,3
4,25,21,4,1,0,12,100,3
36,100,63,89,32,6,0,1,3
13,100,16,45,16,11,15,60,3
14,100,1,48,13,4,1,0,3
1,67,100,34,7,1,0,16,3
5,100,50,17,1,0,3,24,3
8,100,58,82,15,2,2,30,3
15,82,100,17,6,2,13,77,3
6,57,100,24,15,8,15,35,3
25,100,72,22,0,1,7,4,3
0,27,100,8,0,1,3,75,3
42,63,8,14,21,10,17,100,3
42,100,68,68,32,9,9,79,3
8,61,100,19,9,2,6,24,3
37,51,9,29,11,5,8,100,3
16,100,96,14,12,3,1,34,3
1,62,100,50,9,2,0,21,3
0,53,100,1,3,3,3,14,3
14,40,31,9,0,2,4,100,3
4,15,100,8,1,3,1,36,3
37,26,40,16,29,8,6,100,3
38,14,100,14,20,5,0,16,3
10,64,87,100,25,2,2,5,3
6,100,51,45,3,10,9,81,3
26,100,83,73,18,8,20,16,3
0,11,39,100,33,7,1,84,3
46,64,89,100,25,3,10,46,3
4,12,0,62,23,8,1,100,3
5,25,4,1,2,0,5,100,3
7,36,100,22,7,3,0,25,3
17,2,100,57,25,14,14,77,3
0,31,100,5,1,0,5,9,3
14,53,77,1,1,1,1,100,3
9,12,69,16,1,1,10,100,3
19,100,44,43,14,7,0,5,3
3,81,100,45,26,9,6,4,3
16,79,100,18,6,4,11,23,3
18,78,100,22,0,2,0,65,3
16,62,100,95,20,0,4,0,3
4,84,100,8,8,6,1,12,3
30,80,33,18,1,0,18,100,3
1,4,2,38,5,0,5,100,3
4,100,36,5,4,1,0,12,3
17,55,42,70,21,6,4,100,3
13,50,100,44,7,3,7,23,3
0,11,100,2,0,5,6,9,3
22,17,46,69,34,13,8,100,3
4,82,100,58,26,14,4,0,3
12,17,100,12,34,9,12,60,3
9,100,85,2,13,1,1,57,3
4,79,100,11,11,1,1,12,3
1,1,100,23,1,1,1,1,3
2,15,100,1,2,1,0,2,3
11,10,100,41,1,0,2,0,3
4,30,100,26,5,1,1,89,3
3,3,100,20,4,2,4,17,3
0,100,31,20,15,1,20,51,3
4,55,100,39,1,0,2,36,3
17,100,44,46,1,5,3,10,3
6,61,100,10,6,3,1,1,3
5,14,2,13,5,1,6,100,3
10,100,14,13,4,0,3,10,3
3,100,30,91,28,5,5,3,3
9,33,100,32,0,0,0,4,3
3,100,76,27,0,0,3,3,3
12,53,100,3,12,8,10,46,3
6,0,100,1,3,1,1,4,3
0,31,100,14,4,7,2,15,3
14,100,64,43,2,2,2,16,3
8,22,100,10,2,1,4,2,3
13,65,100,28,5,0,2,65,3
9,69,100,35,11,0,2,40,3
1,21,100,18,5,0,5,56,3
4,6,100,7,11,0,0,7,3
3,54,100,14,9,1,1,12,3
15,100,84,35,30,5,5,0,3
0,53,100,3,7,3,0,16,3
4,26,1,35,17,7,4,100,3
14,100,69,17,3,0,0,20,3
7,71,100,14,28,5,7,1,3
9,22,100,50,12,3,3,14,3
6,100,14,18,1,2,1,6,3
0,10,100,6,20,8,2,7,3
7,100,57,69,13,7,1,11,3
1,17,100,27,3,3,0,100,3
1,23,100,11,12,0,0,23,3
1,28,100,18,6,1,0,12,3
18,29,84,18,6,0,2,100,3
37,37,100,40,10,7,20,5,3
11,56,100,30,18,2,2,6,3
4,66,100,9,2,0,1,28,3
5,20,100,21,17,5,5,25,3
1,0,100,37,18,0,1,22,3
0,100,70,50,13,3,1,41,3
40,100,33,90,4,0,19,11,3
0,74,100,42,12,1,9,59,3
4,100,52,23,41,2,13,54,3
17,100,100,2,2,2,4,47,3
22,100,88,17,31,2,4,0,3
24,100,34,65,15,3,12,92,3
18,75,100,14,8,0,0,9,3
1,20,100,23,21,0,0,95,3
9,28,100,63,3,1,1,25,3
16,100,97,0,21,10,16,21,3
16,13,100,35,10,8,6,42,3
27,100,86,26,9,6,10,0,3
42,100,76,16,21,3,10,37,3
13,56,100,61,6,6,2,2,3
13,0,19,3,0,1,1,100,3
10,44,100,21,2,2,0,34,3
11,100,11,30,7,1,1,58,3
16,41,100,43,2,1,2,49,3
22,70,48,16,29,3,35,100,3
0,9,100,2,3,0,0,72,3
1,21,100,5,1,1,4,52,3
16,22,100,16,30,13,5,100,3
10,6,38,17,0,2,4,100,3
16,100,47,3,0,3,7,6,3
24,66,41,11,22,16,15,100,3
5,36,100,40,7,6,7,30,3
22,100,7,13,1,3,8,93,3
42,100,77,61,32,15,22,25,3
36,100,73,50,23,2,5,73,3
9,50,100,52,10,0,1,9,3
23,2,88,100,14,2,8,67,3
25,0,100,23,9,4,9,84,3
27,72,100,16,9,4,4,2,3
6,30,100,7,0,0,4,1,3
16,77,54,90,6,6,0,100,3
6,1,100,62,22,3,7,46,3
1,23,100,13,17,5,3,28,3
16,2,100,42,10,1,13,54,3
38,30,100,19,25,11,5,72,3
32,72,43,45,24,10,21,100,3
33,100,33,45,22,7,18,33,3
0,21,100,21,0,1,1,31,3
5,100,48,29,1,1,2,8,3
7,100,42,22,25,7,1,16,3
1,9,100,53,11,1,3,2,3
17,68,100,75,44,20,31,79,3
5,6,100,7,11,3,1,73,3
2,63,100,11,5,0,0,7,3
26,83,26,2,16,10,34,100,3
23,0,50,100,7,0,10,52,3
2,85,100,42,19,2,4,10,3
24,70,70,100,67,13,18,2,3
41,38,100,88,26,11,11,29,3
0,49,100,8,0,0,0,0,3
24,100,13,28,1,0,1,72,3
19,100,77,29,70,22,25,29,3
30,26,57,23,2,0,7,100,3
20,100,31,13,6,1,1,29,3
24,41,39,0,1,5,6,100,3
6,13,100,22,0,4,0,25,3
16,100,2,28,2,0,1,40,3
10,100,76,36,7,5,1,38,3
4,79,100,24,6,2,2,16,3
13,100,34,4,5,2,15,55,3
42,100,78,72,27,1,0,43,3
3,100,41,5,62,11,5,17,3
7,48,100,49,22,7,4,9,3
6,68,52,15,9,13,20,100,3
20,100,17,17,17,5,2,3,3
6,59,100,15,3,1,1,27,3
82,75,100,7,35,17,25,78,3
8,73,100,35,23,11,2,94,3
8,46,71,16,5,8,13,100,3
17,100,33,1,0,0,2,12,3
31,100,9,26,11,4,4,34,3
17,25,25,7,0,0,5,100,3
3,100,41,16,0,1,3,40,3
18,100,38,20,4,4,3,41,3
8,100,32,2,2,0,5,48,3
17,100,32,13,0,2,5,54,3
9,100,4,16,6,0,1,35,3
0,100,28,1,1,1,0,26,3
14,100,1,4,12,3,8,32,3
20,100,17,35,12,0,32,80,3
10,96,100,1,3,1,1,10,3
0,100,15,8,7,2,2,64,3
13,53,51,23,6,2,11,100,3
1,63,4,5,1,0,5,100,3
11,100,45,34,8,7,5,21,3
35,100,2,9,7,2,21,61,3
1,100,28,2,1,2,1,16,3
13,100,97,15,15,15,18,5,3
7,100,38,5,1,0,0,16,3
32,100,30,25,2,2,6,100,3
16,100,9,1,2,3,5,2,3
81,83,27,2,5,18,35,100,3
55,100,58,24,12,2,6,20,3
14,33,13,11,11,4,4,100,3
8,97,100,10,0,2,6,39,3
25,100,72,16,11,0,2,58,3
5,100,38,7,0,0,11,16,3
5,100,26,0,1,0,0,47,3
14,100,0,29,7,2,7,38,3
8,42,100,33,3,3,3,4,3
3,62,100,17,7,1,1,12,3
2,1,1,2,3,2,33,100,3
10,0,68,5,2,1,6,100,3
18,93,100,65,25,6,2,18,3
2,25,100,17,5,5,5,1,3
2,100,63,1,8,1,2,2,3
9,67,100,69,2,2,2,2,3
30,100,12,0,2,6,10,100,3
35,100,25,42,71,16,18,63,3
20,8,100,29,9,0,0,12,3
57,100,36,100,10,6,14,40,3
10,19,24,8,1,8,14,100,3
14,6,97,32,8,10,6,100,3
18,10,100,4,1,1,0,14,3
2,34,100,14,22,26,12,10,3
8,20,7,14,6,3,10,100,3
15,87,100,9,4,3,3,4,3
50,6,6,100,84,19,30,50,3
0,63,100,28,13,1,4,38,3
7,64,100,8,40,3,3,23,3
2,83,100,18,18,2,2,6,3
0,75,81,100,18,2,10,8,3
25,40,81,13,9,2,6,100,3
18,100,45,58,16,2,9,38,3
35,68,100,4,0,8,16,46,3
7,100,26,33,2,2,14,78,3
8,100,18,1,7,5,15,52,3
9,64,24,100,29,7,7,3,3
34,10,100,8,0,8,34,38,3
28,100,85,23,11,3,5,43,3
73,61,96,26,26,15,11,100,3
11,98,100,1,1,2,11,5,3
3,100,61,23,15,0,7,50,3
6,76,100,29,21,10,1,26,3
12,100,59,21,12,3,4,37,3
7,100,77,84,16,3,0,1,3
17,31,31,46,26,21,14,100,3
0,5,100,25,3,2,1,10,3
19,80,100,80,4,2,2,29,3
10,70,100,13,35,2,5,54,3
19,100,34,21,1,1,0,28,3
0,100,25,1,20,11,4,14,3
30,76,100,9,33,4,11,21,3
2,100,70,73,17,9,2,46,3
46,89,100,76,20,12,23,69,3
53,96,100,51,0,7,15,67,3
13,100,14,36,6,0,2,41,3
7,9,3,8,3,0,0,100,3
4,100,55,0,9,2,11,65,3
12,26,100,31,2,1,5,26,3
7,77,3,35,3,1,11,100,3
18,44,100,18,21,0,3,9,3
8,34,100,4,4,1,15,71,3
18,41,100,7,9,9,8,2,3
20,90,100,14,10,4,2,20,3
7,90,38,25,6,3,5,100,3
14,100,16,9,3,0,1,4,3
0,100,32,13,10,4,9,40,3
30,69,66,33,6,15,30,100,3
12,28,100,6,1,1,0,0,3
1,100,0,24,1,4,4,45,3
17,100,20,45,1,1,4,22,3
7,65,100,17,3,1,2,23,3
0,44,100,39,6,4,0,14,3
21,100,32,21,32,30,13,21,3
17,100,78,67,21,7,0,85,3
18,100,31,10,10,1,6,58,3
10,100,40,16,3,1,6,68,3
75,100,30,45,0,9,12,78,3
1,1,100,30,11,0,0,4,3
13,24,61,11,4,2,9,100,3
18,100,93,84,56,12,18,65,3
11,21,0,0,5,2,5,100,3
22,57,100,18,6,2,2,36,3
2,16,100,4,10,2,12,68,3
7,100,92,14,4,2,7,47,3
3,100,87,66,3,6,12,54,3
9,21,18,10,0,1,6,100,3
25,100,13,41,0,1,9,13,3
10,49,84,1,5,0,0,100,3
1,87,5,25,5,1,1,100,3
13,63,100,34,13,5,2,5,3
1,73,100,7,5,0,5,0,3
19,36,100,7,3,5,13,19,3
1,39,42,5,0,2,7,100,3
1,33,18,11,10,6,15,100,3
4,27,100,20,6,4,0,2,3
37,100,53,0,5,0,1,51,3
4,100,72,8,2,0,1,53,3
9,100,86,5,0,1,1,25,3
22,100,72,31,4,6,2,2,3
6,50,100,0,0,0,2,10,3
5,100,89,37,0,2,5,62,3
17,100,11,0,0,0,0,54,3
1,100,61,23,6,0,0,25,3
14,77,100,4,4,0,7,0,3
23,48,100,79,53,2,0,15,3
0,56,10,18,5,4,16,100,3
13,76,100,17,1,0,2,23,3
0,1,100,2,3,0,0,10,3
18,98,100,31,13,5,8,1,3
7,44,100,16,6,1,1,0,3
25,100,17,17,9,1,0,75,3
37,81,100,24,5,5,7,5,3
27,100,38,0,14,4,1,19,3
27,100,80,35,15,2,2,5,3
17,100,17,1,14,6,14,26,3
2,94,100,73,5,0,0,2,3
6,100,17,0,1,5,18,55,3
10,100,11,8,2,1,1,3,3
3,100,62,5,16,5,3,2,3
5,94,100,27,5,2,2,40,3
10,100,58,12,9,1,2,0,3
17,100,23,31,11,1,0,23,3
6,100,84,11,0,4,13,24,3
8,100,2,6,2,1,1,0,3
11,100,3,11,9,2,3,3,3
7,51,100,12,2,0,12,70,3
29,35,35,64,16,0,0,100,3
0,63,100,11,0,4,2,48,3
13,3,100,23,26,2,3,35,3
14,19,100,3,16,1,8,37,3
7,88,100,8,0,1,8,83,3
14,100,33,5,13,8,5,12,3
17,74,100,12,7,10,19,25,3
6,100,1,14,5,5,0,14,3
8,95,95,31,18,1,6,100,3
10,62,72,81,2,13,43,100,3
17,100,90,37,24,1,2,23,3
13,100,92,26,5,7,21,76,3
5,73,23,23,11,5,34,100,3
17,100,73,1,0,0,5,8,3
8,74,74,46,2,0,4,100,3
1,100,19,13,5,2,1,4,3
13,100,50,45,18,0,18,38,3
7,20,21,21,1,1,14,100,3
28,100,46,38,13,2,0,4,3
11,62,100,11,2,2,6,31,3
8,78,100,42,10,3,1,1,3
7,45,100,18,11,2,2,8,3
10,52,100,17,27,0,2,55,3
11,100,42,0,3,0,0,56,3
17,86,100,9,5,0,24,41,3
13,25,100,22,0,0,1,84,3
31,31,100,0,37,28,34,96,3
55,100,96,59,23,7,17,30,3
35,67,67,67,0,23,47,100,3
13,100,86,25,7,6,3,22,3
22,64,100,33,17,8,8,14,3
3,44,100,4,0,1,4,26,3
16,100,74,1,3,0,0,20,3
6,51,100,16,8,4,16,8,3
27,8,75,100,24,8,4,27,3
9,95,5,34,2,2,11,100,3
4,100,78,68,4,7,2,53,3
25,100,65,25,6,8,17,0,3
5,12,100,6,1,2,1,32,3
6,4,56,100,34,22,16,50,3
11,100,63,40,9,0,0,11,3
7,20,100,25,4,1,4,11,3
0,50,3,2,4,4,16,100,3
28,68,24,100,34,9,16,63,3
1,100,32,48,17,0,1,26,3
0,39,100,30,3,3,2,9,3
1,65,100,10,12,9,7,11,3
6,29,100,21,12,5,5,9,3
7,22,9,24,20,5,5,100,3
17,100,71,67,53,32,25,0,3
3,48,100,96,6,10,48,34,3
15,100,26,0,1,15,1,96,3
16,24,84,33,35,1,11,100,3
4,86,45,100,34,8,2,0,3
24,10,2,100,26,8,12,32,3
31,100,91,66,25,0,4,8,3
15,49,100,12,27,1,3,16,3
23,20,100,53,12,1,8,47,3
2,25,34,100,42,8,5,68,3
16,55,100,23,4,0,3,56,3
8,8,100,3,5,2,0,34,3
3,17,100,11,6,0,2,22,3
0,82,100,36,7,0,3,90,3
6,4,13,3,4,0,1,100,3
1,15,100,7,7,4,4,30,3
16,100,90,50,10,13,33,30,3
14,16,100,33,18,4,1,0,3
0,10,82,48,22,8,1,100,3
11,3,100,16,18,5,15,33,3
7,50,47,14,7,5,6,100,3
13,52,100,3,4,1,2,18,3
13,100,42,7,2,4,6,1,3
48,100,88,85,37,22,33,14,3
5,37,100,2,7,2,4,1,3
13,42,100,41,8,4,11,29,3
9,32,89,50,12,3,17,100,3
27,100,93,74,22,10,13,98,3
24,72,51,100,31,13,34,27,3
14,72,100,4,3,4,6,46,3
10,43,13,30,19,8,4,100,3
35,91,100,29,8,3,8,91,3
37,100,0,2,0,4,15,68,3

